1603289777.00
64.000000
-0.00
-0.00
-0.00
-0.00
-0.00
-0.00
-0.00
-0.00
-0.00
-0.00
0.00
0.01
0.01
-0.00
-0.03
-0.05
-0.05
0.00
0.13
0.36
0.66
1.01
1.37
1.72
2.06
2.40
2.79
3.24
3.80
4.42
5.06
5.66
6.20
6.68
7.15
7.68
8.31
9.14
10.09
11.04
11.88
12.56
13.14
13.76
14.65
15.96
17.91
20.32
22.90
25.38
27.58
29.57
31.68
34.32
37.81
42.54
48.15
54.10
59.83
64.97
69.58
74.14
79.34
85.71
93.76
103.00
112.62
121.73
129.77
136.75
143.30
150.75
157.77
166.64
177.95
191.79
206.97
220.57
228.25
225.36
208.53
176.87
132.76
80.05
23.07
-34.94
-92.44
-149.16
-205.23
-260.37
-313.74
-363.87
-409.83
-450.91
-486.50
-515.74
-537.23
-549.22
-549.96
-538.37
-514.21
-478.67
-433.88
-382.45
-327.02
-269.84
-212.63
-156.66
-102.95
-52.37
-5.90
35.58
71.43
101.35
125.50
144.38
158.69
169.15
176.37
180.75
182.57
182.07
179.51
175.23
169.65
163.18
156.15
148.81
141.30
133.69
126.02
118.33
110.69
103.16
95.80
88.68
81.83
75.25
68.95
62.95
57.25
51.86
46.78
42.03
37.59
33.45
29.61
26.07
22.81
19.83
17.11
14.67
12.48
10.54
8.83
7.35
6.07
4.97
4.05
3.27
2.62
2.09
1.65
1.30
1.01
0.79
0.61
0.48
0.37
0.28
0.22
0.19
0.18
0.19
0.20
0.21
0.17
0.10
-0.02
-0.14
-0.24
-0.28
-0.26
-0.20
-0.12
-0.09
-0.11
-0.19
-0.28
-0.35
-0.34
-0.25
-0.12
-0.00
0.02
-0.09
-0.31
-0.57
-0.74
-0.72
-0.49
-0.16
0.11
0.13
-0.21
-0.85
-1.57
-2.08
-2.13
-1.68
-0.93
-0.27
-0.11
-0.69
-1.92
-3.38
-4.48
-4.75
-4.06
-2.75
-1.48
-0.99
-1.68
-3.44
-5.62
-7.39
-8.03
-7.30
-5.55
-3.54
-2.19
-2.36
-4.75
-9.68
-16.74
-24.45
-30.26
-31.15
-24.91
-11.26
7.54
27.28
43.33
52.48
53.98
49.44
41.67
33.27
25.73
19.38
13.93
9.19
5.23
2.35
0.57
-0.44
-1.32
-2.65
-4.68
-7.13
-9.38
-10.70
-10.63
-9.20
-6.93
-4.78
-3.72
-4.30
-6.56
-9.94
-13.52
-16.38
-17.98
-18.30
-17.88
-17.53
-17.86
-19.19
-21.40
-24.00
-26.34
-27.92
-28.55
-28.52
-28.44
-28.78
-30.09
-32.76
-36.85
-41.91
-46.83
-49.92
-49.32
-43.69
-32.52
-16.91
0.78
17.79
31.93
42.35
49.59
55.24
58.96
61.23
62.32
62.28
61.12
58.93
55.97
52.53
48.79
44.77
40.73
36.78
33.04
29.74
27.15
25.53
24.89
24.97
25.11
24.74
23.22
20.15
15.59
10.06
4.33
-0.93
-5.43
-9.44
-13.48
-18.20
-23.94
-30.56
-37.46
-43.88
-49.28
-53.59
-57.25
-61.03
-65.84
-72.46
-81.31
-92.08
-103.64
-113.92
-120.34
-120.38
-112.46
-96.55
-74.32
-48.60
-22.56
1.24
21.37
37.48
49.93
59.26
65.84
69.87
71.47
70.95
68.80
65.71
62.34
59.17
56.44
54.19
52.35
50.86
49.62
48.54
47.38
45.82
43.46
40.01
35.38
29.73
23.41
16.76
10.00
3.19
-3.77
-10.89
-18.08
-25.08
-31.66
-37.69
-43.30
-48.83
-54.82
-61.86
-70.36
-80.38
-91.29
-101.60
-109.08
-111.32
-106.43
-93.85
-74.63
-51.13
-26.29
-2.64
18.24
35.82
50.27
61.88
70.74
76.70
79.62
79.64
77.29
73.47
69.11
64.95
61.35
58.28
55.46
52.64
49.67
46.60
43.58
40.71
37.89
34.77
30.83
25.53
18.57
10.07
0.59
-9.03
-17.96
-25.67
-32.18
-37.97
-43.84
-50.63
-58.94
-69.02
-80.57
-92.65
-103.67
-111.56
-114.11
-109.66
-97.65
-78.89
-55.43
-29.98
-5.12
17.27
36.33
52.02
64.78
75.07
83.10
88.80
91.97
92.56
90.78
87.18
82.53
77.57
72.92
68.94
65.72
63.18
61.16
59.37
57.49
55.15
51.97
47.71
42.36
36.05
29.08
21.68
14.02
6.08
-2.13
-10.61
-19.16
-27.51
-35.31
-42.36
-48.70
-54.64
-60.81
-67.95
-76.74
-87.35
-99.12
-110.36
-118.60
-121.18
-116.19
-103.15
-83.26
-59.06
-33.55
-9.31
12.10
30.21
45.34
58.04
68.65
77.20
83.53
87.46
89.04
88.59
86.61
83.63
80.12
76.43
72.81
69.44
66.54
64.24
62.59
61.40
60.33
58.94
56.84
53.84
49.91
45.26
40.13
34.73
29.18
23.53
17.79
12.02
6.37
0.93
-4.32
-9.52
-14.96
-20.87
-27.30
-34.06
-40.82
-47.21
-53.08
-58.49
-63.79
-69.53
-76.36
-84.87
-95.23
-106.85
-118.15
-126.70
-129.81
-125.44
-113.04
-93.78
-70.21
-45.36
-21.80
-1.05
16.42
30.88
42.77
52.39
59.84
65.14
68.38
69.77
69.64
68.32
66.17
63.50
60.62
57.85
55.52
53.89
53.09
53.04
53.43
53.77
53.54
52.35
50.02
46.61
42.37
37.56
32.45
27.20
21.94
16.77
11.77
6.95
2.29
-2.37
-7.24
-12.49
-18.19
-24.17
-30.10
-35.60
-40.40
-44.51
-48.24
-52.09
-56.69
-62.66
-70.39
-79.85
-90.32
-100.22
-107.29
-109.10
-103.92
-91.37
-72.67
-50.27
-27.09
-5.60
12.74
27.47
38.81
47.19
52.94
56.32
57.59
57.22
55.81
54.03
52.32
50.83
49.42
47.82
45.89
43.69
41.62
40.11
39.45
39.54
39.86
39.65
38.15
34.97
30.19
24.32
18.08
12.16
6.93
2.41
-1.71
-5.94
-10.76
-16.43
-22.86
-29.64
-36.18
-41.87
-46.43
-50.01
-53.27
-57.19
-62.79
-70.75
-81.03
-92.60
-103.47
-111.08
-112.95
-107.49
-94.51
-75.42
-52.73
-29.35
-7.76
10.48
24.87
35.68
43.55
49.13
52.89
55.17
56.22
56.30
55.70
54.74
53.68
52.70
51.84
51.04
50.18
49.16
47.91
46.50
45.03
43.56
42.04
40.26
37.93
34.76
30.62
25.61
20.04
14.31
8.82
3.81
-0.65
-4.73
-8.68
-12.85
-17.51
-22.79
-28.58
-34.57
-40.31
-45.41
-49.76
-53.57
-57.38
-61.96
-68.03
-76.09
-86.07
-97.07
-107.31
-114.27
-115.38
-108.85
-94.36
-73.42
-48.91
-24.18
-2.02
16.04
29.84
40.13
47.90
53.86
58.32
61.30
62.78
62.92
61.98
60.26
57.91
55.02
51.66
48.07
44.63
41.84
40.08
39.42
39.60
40.05
40.16
39.45
37.66
34.82
31.10
26.75
21.97
16.95
11.88
6.98
2.47
-1.52
-5.11
-8.63
-12.56
-17.31
-22.98
-29.30
-35.66
-41.46
-46.36
-50.45
-54.21
-58.36
-63.59
-70.50
-79.38
-89.98
-101.26
-111.27
-117.39
-117.03
-108.59
-92.14
-69.63
-44.24
-19.40
2.33
19.80
33.10
43.03
50.43
55.77
59.23
60.88
60.93
59.83
58.09
56.14
54.17
52.12
49.90
47.47
44.99
42.80
41.20
40.36
40.16
40.25
40.16
39.37
37.54
34.48
30.23
25.08
19.45
13.84
8.68
4.17
0.27
-3.32
-7.00
-11.13
-15.87
-21.11
-26.54
-31.80
-36.54
-40.68
-44.34
-47.93
-52.03
-57.27
-64.16
-72.78
-82.51
-91.82
-98.47
-100.02
-94.63
-81.82
-62.72
-39.84
-16.24
5.36
23.23
36.82
46.37
52.51
55.82
56.77
55.81
53.51
50.59
47.73
45.36
43.59
42.26
41.11
40.02
39.04
38.37
38.14
38.23
38.28
37.67
35.85
32.49
27.67
21.89
15.80
10.02
4.75
-0.14
-5.12
-10.60
-16.69
-23.13
-29.42
-35.08
-39.95
-44.26
-48.59
-53.70
-60.30
-68.80
-78.96
-89.63
-98.71
-103.52
-101.63
-91.77
-74.49
-52.02
-27.65
-4.54
15.08
30.41
41.70
49.76
55.28
58.69
60.16
59.92
58.35
55.99
53.41
50.97
48.74
46.60
44.39
42.12
39.98
38.24
37.06
36.26
35.36
33.75
31.01
27.06
22.22
16.96
11.65
6.38
0.92
-5.11
-11.98
-19.67
-27.80
-35.81
-43.13
-49.40
-54.63
-59.29
-64.15
-70.18
-78.14
-88.19
-99.45
-109.89
-116.68
-117.01
-109.09
-92.88
-70.26
-44.42
-18.82
3.91
22.47
36.91
47.95
56.43
62.83
67.30
69.84
70.61
70.07
68.78
67.25
65.71
64.12
62.25
59.93
57.22
54.42
52.01
50.37
49.60
49.39
49.03
47.67
44.64
39.71
33.28
26.20
19.50
13.86
9.35
5.37
0.98
-4.66
-11.79
-20.01
-28.41
-36.02
-42.22
-46.97
-50.75
-54.33
-58.57
-64.23
-71.87
-81.66
-92.95
-104.16
-112.72
-115.74
-110.96
-97.70
-77.21
-52.33
-26.50
-2.71
17.28
32.96
44.68
53.04
58.54
61.52
62.35
61.55
59.80
57.75
55.72
53.72
51.46
48.67
45.31
41.74
38.56
36.35
35.35
35.30
35.45
34.86
32.75
28.81
23.30
16.93
10.53
4.69
-0.45
-5.21
-10.21
-15.99
-22.79
-30.40
-38.33
-45.99
-52.96
-59.15
-64.84
-70.56
-77.00
-84.86
-94.50
-105.61
-116.87
-125.93
-129.89
-126.18
-113.50
-92.52
-65.78
-36.96
-9.73
13.20
30.63
42.65
50.17
54.29
55.97
55.96
54.90
53.46
52.23
51.63
51.80
52.63
53.77
54.94
55.94
56.73
57.32
57.65
57.57
56.80
55.14
52.48
48.89
44.54
39.59
34.15
28.21
21.81
15.01
8.03
1.15
-5.36
-11.37
-16.99
-22.54
-28.54
-35.62
-44.37
-55.02
-67.15
-79.42
-89.64
-95.31
-94.29
-85.65
-70.02
-49.48
-26.90
-5.05
14.07
29.58
41.52
50.43
56.99
61.69
64.81
66.57
67.15
66.74
65.55
63.64
61.02
57.68
53.72
49.43
45.20
41.45
38.31
35.66
33.07
30.08
26.38
21.99
17.14
12.12
7.10
2.01
-3.35
-9.18
-15.47
-21.93
-28.10
-33.53
-38.01
-41.74
-45.33
-49.57
-55.37
-63.29
-73.37
-84.78
-95.77
-103.94
-106.79
-102.47
-90.48
-71.87
-49.04
-24.86
-1.97
17.97
34.34
47.32
57.44
65.19
70.89
74.73
76.85
77.46
76.79
75.08
72.56
69.44
65.98
62.46
59.27
56.72
55.00
54.04
53.44
52.60
50.89
47.84
43.38
37.80
31.67
25.60
19.95
14.78
9.83
4.76
-0.68
-6.51
-12.57
-18.59
-24.38
-29.94
-35.54
-41.68
-49.07
-58.35
-69.82
-83.03
-96.49
-107.82
-114.23
-113.40
-104.35
-87.84
-66.19
-42.43
-19.40
1.02
18.08
31.91
43.01
51.81
58.53
63.26
66.13
67.39
67.34
66.29
64.49
62.08
59.22
56.13
53.15
50.65
48.94
48.12
47.99
48.04
47.54
45.81
42.44
37.43
31.29
24.72
18.39
12.58
7.16
1.65
-4.42
-11.24
-18.58
-25.91
-32.64
-38.43
-43.35
-47.87
-52.72
-58.73
-66.58
-76.56
-88.20
-100.12
-110.04
-115.29
-113.62
-104.06
-87.36
-65.81
-42.42
-19.92
-0.01
16.75
30.63
42.05
51.16
57.84
61.90
63.45
63.04
61.49
59.58
57.79
56.20
54.64
52.92
51.05
49.22
47.70
46.62
45.84
44.94
43.37
40.75
36.97
32.31
27.26
22.34
17.81
13.60
9.34
4.58
-1.00
-7.34
-14.07
-20.57
-26.30
-31.00
-34.83
-38.35
-42.37
-47.81
-55.33
-65.02
-76.06
-86.63
-94.24
-96.38
-91.40
-79.10
-60.93
-39.47
-17.63
2.27
18.92
32.08
42.12
49.56
54.71
57.66
58.45
57.36
54.93
51.91
48.99
46.59
44.77
43.32
42.01
40.79
39.78
39.14
38.82
38.41
37.24
34.73
30.60
25.14
19.05
13.07
7.70
2.89
-1.79
-6.94
-12.90
-19.62
-26.63
-33.29
-39.11
-43.91
-47.96
-51.87
-56.45
-62.51
-70.65
-80.85
-92.22
-102.82
-109.95
-110.92
-104.03
-89.23
-68.35
-44.40
-20.58
0.67
18.28
32.33
43.49
52.41
59.32
64.11
66.61
66.93
65.58
63.35
61.01
59.03
57.44
56.00
54.36
52.43
50.42
48.72
47.70
47.35
47.22
46.55
44.54
40.72
35.10
28.24
20.97
14.16
8.35
3.64
-0.38
-4.37
-9.01
-14.62
-21.12
-27.99
-34.54
-40.21
-44.81
-48.63
-52.31
-56.68
-62.50
-70.36
-80.40
-92.09
-104.00
-113.85
-118.93
-116.87
-106.56
-88.66
-65.49
-40.28
-16.10
5.01
22.27
35.90
46.55
54.80
60.96
65.15
67.52
68.32
67.90
66.65
64.93
62.98
60.96
58.89
56.81
54.74
52.81
51.24
50.18
49.66
49.42
48.89
47.41
44.42
39.73
33.60
26.68
19.75
13.47
8.15
3.71
-0.32
-4.55
-9.53
-15.57
-22.58
-30.12
-37.54
-44.22
-49.82
-54.41
-58.49
-62.79
-68.12
-75.15
-84.11
-94.52
-104.97
-113.18
-116.46
-112.57
-100.55
-81.30
-57.36
-32.10
-8.64
11.06
26.44
37.96
46.51
52.76
57.05
59.42
59.96
58.98
57.03
54.68
52.36
50.30
48.47
46.79
45.23
43.88
42.92
42.49
42.63
43.15
43.66
43.64
42.54
39.97
35.84
30.48
24.52
18.77
13.82
9.81
6.33
2.61
-2.08
-8.09
-15.22
-22.75
-29.81
-35.69
-40.17
-43.53
-46.49
-49.97
-54.89
-61.97
-71.48
-82.95
-94.98
-105.23
-110.93
-109.64
-100.09
-82.78
-59.91
-34.67
-10.36
10.62
27.08
39.02
47.11
52.16
54.85
55.69
55.10
53.54
51.49
49.35
47.35
45.55
43.84
42.18
40.63
39.39
38.73
38.73
39.21
39.70
39.59
38.32
35.61
31.55
26.52
21.09
15.75
10.74
6.01
1.25
-3.91
-9.66
-15.92
-22.32
-28.37
-33.68
-38.14
-41.98
-45.76
-50.22
-56.15
-64.02
-73.72
-84.19
-93.41
-98.78
-97.88
-89.38
-73.62
-52.63
-29.48
-7.30
11.59
26.17
36.52
43.36
47.44
49.28
49.11
47.10
43.61
39.27
34.88
31.23
28.81
27.67
27.44
27.51
27.25
26.32
24.70
22.66
20.56
18.59
16.65
14.36
11.24
6.88
1.24
-5.35
-12.30
-18.94
-24.88
-30.04
-34.72
-39.39
-44.55
-50.66
-58.07
-66.94
-76.99
-87.26
-96.01
-100.99
-100.08
-92.04
-77.07
-56.84
-34.04
-11.47
8.64
25.09
37.61
46.46
52.09
54.85
55.04
53.05
49.45
44.98
40.38
36.18
32.57
29.45
26.51
23.56
20.59
17.86
15.65
14.11
12.98
11.60
9.18
5.09
-0.82
-8.14
-16.00
-23.47
-29.91
-35.21
-39.85
-44.69
-50.73
-58.79
-69.15
-81.26
-93.60
-103.79
-109.16
-107.50
-97.84
-80.83
-58.62
-34.14
-10.20
11.17
29.07
43.53
55.06
64.18
71.23
76.33
79.57
81.17
81.53
81.18
80.59
80.02
79.50
78.89
78.12
77.37
77.07
77.72
79.67
82.73
86.27
89.30
90.92
90.73
89.01
86.73
85.12
85.26
87.64
91.94
97.08
101.39
102.99
100.26
92.54
80.77
67.89
58.45
57.49
68.84
93.61
129.58
171.80
214.19
251.35
279.73
297.80
305.44
303.14
291.53
271.45
244.24
211.75
176.06
138.94
101.61
64.95
29.97
-1.91
-29.09
-50.38
-65.70
-76.25
-84.13
-91.52
-99.92
-109.96
-121.55
-134.39
-148.14
-162.29
-176.00
-187.91
-196.56
-200.88
-200.65
-196.58
-189.98
-182.39
-175.12
-169.10
-164.77
-162.07
-160.42
-158.76
-155.73
-150.08
-141.13
-129.04
-114.79
-99.78
-85.33
-72.34
-61.21
-52.00
-44.71
-39.37
-35.99
-34.42
-34.26
-34.89
-35.77
-36.54
-37.23
-38.09
-39.40
-41.24
-43.39
-45.41
-46.87
-47.60
-47.72
-47.74
-48.32
-50.04
-53.19
-57.60
-62.68
-67.75
-72.30
-76.33
-80.39
-85.32
-91.81
-100.03
-109.50
-119.35
-128.79
-137.60
-146.18
-155.49
-166.57
-180.19
-196.46
-214.47
-232.14
-246.21
-252.76
-248.03
-229.65
-197.60
-154.54
-105.26
-55.34
-9.76
28.21
57.35
78.01
91.38
98.83
101.60
100.95
98.30
95.27
93.42
93.80
96.59
101.07
106.03
110.26
113.19
114.94
116.08
117.17
118.22
118.68
117.60
114.15
108.01
99.57
89.70
79.41
69.50
60.22
51.33
42.23
32.27
21.05
8.63
-4.52
-17.74
-30.49
-42.64
-54.64
-67.35
-81.61
-97.64
-114.62
-130.43
-142.03
-146.16
-140.40
-123.94
-97.99
-65.43
-29.99
4.81
36.45
63.77
86.64
105.38
120.22
131.03
137.46
139.34
137.07
131.67
124.70
117.76
112.10
108.34
106.43
105.87
105.98
106.12
105.76
104.50
101.98
97.84
91.79
83.69
73.61
61.78
48.48
33.80
17.51
-0.91
-22.07
-46.44
-74.06
-104.44
-136.54
-168.99
-200.42
-229.81
-256.74
-281.27
-303.66
-323.72
-340.33
-351.39
-354.18
-346.32
-326.65
-295.67
-255.43
-208.77
-158.63
-107.50
-57.36
-9.90
33.49
71.71
104.33
131.70
154.86
175.18
193.86
211.56
228.35
243.92
258.00
270.59
281.96
292.47
302.03
309.82
314.20
313.07
304.47
287.01
260.06
223.54
177.68
123.12
61.28
-4.98
-71.12
-131.44
-180.23
-213.18
-228.41
-226.77
-211.39
-186.98
-159.06
-133.15
-114.09
-105.11
-107.10
-118.51
-136.19
-156.84
-178.27
-199.64
-220.61
-239.90
-254.50
-260.08
-252.59
-230.06
-193.46
-146.20
-92.65
-36.77
18.38
70.08
115.06
149.27
168.73
171.19
157.59
132.34
102.24
74.41
54.14
43.80
43.05
50.21
63.83
83.36
108.67
138.57
169.48
195.39
209.40
206.22
184.52
147.62
102.29
56.25
15.64
-16.39
-39.45
-54.71
-63.47
-66.45
-64.00
-56.87
-46.71
-36.05
-27.44
-22.38
-20.56
-19.87
-17.32
-10.19
2.83
21.35
43.68
67.67
91.58
114.38
135.62
154.90
171.54
184.43
192.42
194.75
191.43
183.33
171.92
158.87
145.61
133.11
121.81
111.76
102.80
94.66
87.07
79.77
72.53
65.25
57.93
50.65
43.46
36.27
28.80
20.64
11.42
1.02
-10.30
-21.91
-32.96
-42.72
-50.83
-57.44
-63.22
-69.11
-76.04
-84.66
-95.08
-106.69
-118.15
-127.48
-132.43
-131.07
-122.35
-106.49
-84.98
-60.15
-34.45
-9.83
12.51
32.17
49.17
63.64
75.60
84.89
91.34
94.90
95.70
94.16
90.87
86.56
81.89
77.41
73.46
70.25
67.79
65.94
64.37
62.60
60.09
56.41
51.45
45.46
38.99
32.59
26.60
20.91
15.18
8.95
2.04
-5.41
-12.93
-19.98
-26.19
-31.49
-36.19
-40.89
-46.32
-53.12
-61.55
-71.14
-80.65
-88.13
-91.52
-89.25
-80.80
-66.90
-49.28
-30.07
-11.18
6.12
21.26
34.12
44.76
53.13
59.11
62.65
63.94
63.46
61.93
60.07
58.40
57.10
56.11
55.24
54.33
53.36
52.38
51.44
50.46
49.25
47.51
44.93
41.26
36.39
30.40
23.52
16.16
8.75
1.64
-4.99
-11.27
-17.52
-24.22
-31.89
-40.93
-51.52
-63.43
-75.84
-87.32
-96.04
-100.14
-98.34
-90.34
-77.02
-60.16
-41.89
-24.09
-8.01
5.82
17.36
26.75
34.10
39.37
42.49
43.53
42.75
40.67
37.94
35.21
32.94
31.35
30.40
29.90
29.63
29.43
29.20
28.87
28.24
27.05
24.97
21.69
17.08
11.25
4.54
-2.58
-9.64
-16.29
-22.38
-27.91
-33.02
-37.95
-43.05
-48.71
-55.35
-63.06
-71.44
-79.35
-85.06
-86.77
-83.17
-73.99
-60.17
-43.49
-25.94
-9.06
6.33
20.07
32.25
42.86
51.65
58.22
62.31
64.00
63.72
62.07
59.62
56.75
53.65
50.44
47.30
44.52
42.38
41.06
40.47
40.17
39.51
37.82
34.71
30.19
24.77
19.18
14.14
9.96
6.46
3.05
-0.96
-6.06
-12.30
-19.28
-26.38
-33.04
-39.01
-44.40
-49.61
-55.16
-61.48
-68.77
-76.87
-85.15
-92.51
-97.46
-98.51
-94.56
-85.36
-71.63
-54.96
-37.34
-20.60
-5.97
6.12
15.85
23.68
29.95
34.80
38.14
39.87
40.05
38.94
36.98
34.65
32.31
30.23
28.59
27.45
26.82
26.66
26.79
26.97
26.95
26.49
25.41
23.61
21.02
17.63
13.57
9.13
4.73
0.81
-2.37
-4.80
-6.86
-9.08
-11.98
-15.84
-20.56
-25.72
-30.77
-35.24
-38.90
-41.84
-44.49
-47.54
-51.76
-57.80
-65.79
-75.11
-84.26
-91.19
-93.89
-91.02
-82.49
-69.40
-53.63
-37.18
-21.58
-7.66
4.33
14.37
22.35
28.12
31.62
33.08
33.05
32.31
31.54
31.11
31.04
31.05
30.83
30.22
29.31
28.42
27.92
28.07
28.88
29.97
30.72
30.39
28.47
24.89
20.09
14.83
9.79
5.31
1.16
-3.30
-8.74
-15.52
-23.45
-31.86
-39.89
-46.81
-52.31
-56.49
-59.85
-63.04
-66.73
-71.39
-77.17
-83.71
-90.10
-94.95
-96.67
-93.93
-86.12
-73.56
-57.48
-39.64
-21.89
-5.67
8.12
19.19
27.58
33.55
37.40
39.45
40.05
39.62
38.53
37.15
35.69
34.34
33.24
32.60
32.66
33.57
35.21
37.11
38.48
38.48
36.57
32.78
27.64
21.96
16.42
11.32
6.48
1.47
-4.06
-10.19
-16.63
-22.94
-28.74
-33.94
-38.74
-43.51
-48.66
-54.50
-61.20
-68.77
-76.87
-84.76
-91.19
-94.61
-93.56
-87.19
-75.59
-59.92
-42.07
-24.04
-7.47
6.77
18.47
27.87
35.37
41.28
45.79
49.01
51.04
51.97
51.94
51.05
49.48
47.47
45.42
43.77
42.84
42.69
43.03
43.24
42.66
40.76
37.40
32.78
27.35
21.57
15.80
10.19
4.68
-0.80
-6.37
-12.05
-17.79
-23.49
-29.05
-34.39
-39.49
-44.40
-49.33
-54.64
-60.76
-67.95
-75.98
-83.89
-90.07
-92.67
-90.24
-82.27
-69.48
-53.52
-36.48
-20.16
-5.75
6.28
15.94
23.38
28.82
32.36
34.22
34.64
33.96
32.47
30.34
27.71
24.71
21.62
18.94
17.28
17.23
19.10
22.82
27.82
33.19
37.87
40.90
41.70
40.12
36.42
31.10
24.65
17.44
9.67
1.45
-7.07
-15.61
-23.77
-31.20
-37.71
-43.41
-48.70
-54.16
-60.38
-67.69
-75.90
-84.14
-90.95
-94.53
-93.37
-86.70
-74.87
-59.21
-41.64
-24.16
-8.32
4.90
15.10
22.36
26.98
29.49
30.46
30.40
29.66
28.33
26.39
23.74
20.41
16.65
12.90
9.65
7.38
6.50
7.27
9.77
13.84
18.97
24.37
29.11
32.39
33.74
33.16
31.01
27.88
24.27
20.52
16.63
12.35
7.20
0.66
-7.62
-17.53
-28.28
-38.34
-45.72
-48.55
-45.68
-37.08
-23.87
-7.92
8.76
24.62
38.80
51.01
61.28
69.57
75.70
79.35
80.35
78.83
75.30
70.52
65.20
59.81
54.51
49.25
43.96
38.72
33.78
29.42
25.83
22.91
20.34
17.64
14.34
10.19
5.15
-0.58
-6.67
-12.81
-18.72
-24.30
-29.56
-34.71
-40.15
-46.37
-53.88
-62.97
-73.36
-84.03
-93.21
-98.78
-98.87
-92.47
-79.85
-62.47
-42.43
-21.96
-2.69
14.46
29.29
41.93
52.58
61.32
68.07
72.72
75.24
75.83
74.83
72.75
70.06
67.15
64.31
61.72
59.54
57.84
56.63
55.78
55.01
53.91
52.14
49.46
45.79
41.23
35.90
29.91
23.36
16.38
9.16
2.02
-4.77
-11.04
-16.77
-22.13
-27.38
-32.81
-38.71
-45.30
-52.60
-60.26
-67.43
-72.83
-75.12
-73.29
-67.08
-57.06
-44.42
-30.49
-16.41
-2.91
9.53
20.54
29.72
36.66
41.15
43.28
43.48
42.37
40.59
38.61
36.71
34.98
33.42
32.09
31.10
30.63
30.77
31.48
32.51
33.46
33.91
33.51
32.09
29.63
26.27
22.27
17.90
13.49
9.29
5.42
1.79
-1.82
-5.72
-10.13
-15.05
-20.28
-25.47
-30.35
-34.73
-38.66
-42.35
-46.18
-50.63
-56.22
-63.30
-71.74
-80.71
-88.58
-93.28
-92.90
-86.38
-74.01
-57.31
-38.51
-19.79
-2.64
12.30
25.02
35.73
44.45
50.96
54.97
56.40
55.60
53.35
50.58
48.15
46.53
45.73
45.48
45.37
45.12
44.66
44.17
43.86
43.84
43.97
43.89
43.13
41.28
38.19
34.04
29.27
24.45
20.06
16.35
13.24
10.42
7.49
4.09
0.11
-4.35
-9.02
-13.57
-17.76
-21.52
-24.99
-28.46
-32.31
-36.88
-42.47
-49.24
-57.10
-65.56
-73.66
-79.97
-82.89
-81.09
-73.96
-61.93
-46.35
-29.13
-12.19
3.01
15.71
25.79
33.49
39.18
43.16
45.63
46.75
46.68
45.65
43.93
41.83
39.65
37.63
35.94
34.66
33.80
33.28
32.94
32.58
31.95
30.81
29.12
26.93
24.45
21.87
19.25
16.49
13.42
9.90
6.00
2.02
-1.61
-4.61
-6.95
-8.95
-11.15
-14.00
-17.74
-22.22
-27.05
-31.78
-36.11
-39.97
-43.51
-47.07
-51.03
-55.76
-61.54
-68.38
-75.86
-82.95
-88.15
-89.76
-86.50
-77.96
-64.82
-48.61
-31.28
-14.56
0.34
12.89
23.05
31.00
37.01
41.33
44.17
45.83
46.53
46.49
45.84
44.58
42.72
40.33
37.64
35.08
33.14
32.15
32.10
32.56
32.86
32.37
30.79
28.28
25.26
22.18
19.24
16.35
13.21
9.54
5.32
0.83
-3.49
-7.29
-10.45
-13.19
-15.96
-19.18
-23.11
-27.65
-32.43
-36.93
-40.73
-43.70
-46.10
-48.56
-51.86
-56.75
-63.57
-72.00
-80.90
-88.44
-92.53
-91.43
-84.38
-71.93
-55.76
-38.17
-21.32
-6.68
5.26
14.73
22.30
28.38
33.03
36.06
37.28
36.78
35.05
32.84
30.83
29.37
28.39
27.54
26.46
25.05
23.51
22.24
21.57
21.53
21.79
21.75
20.82
18.65
15.27
11.13
6.87
3.11
0.14
-2.15
-4.21
-6.66
-9.93
-14.10
-18.84
-23.58
-27.80
-31.21
-33.87
-36.19
-38.65
-41.75
-45.78
-50.86
-56.89
-63.54
-70.14
-75.62
-78.63
-77.83
-72.31
-62.01
-47.80
-31.34
-14.54
0.87
13.77
23.72
30.79
35.38
37.95
38.96
38.77
37.67
35.91
33.69
31.22
28.74
26.51
24.82
23.85
23.62
23.98
24.56
24.94
24.71
23.61
21.62
18.90
15.76
12.48
9.20
5.85
2.22
-1.87
-6.48
-11.44
-16.40
-21.01
-25.07
-28.63
-32.05
-35.89
-40.69
-46.84
-54.35
-62.64
-70.58
-76.60
-79.08
-76.81
-69.42
-57.53
-42.54
-26.24
-10.27
4.24
16.66
26.84
34.75
40.37
43.68
44.78
44.00
41.93
39.30
36.82
34.91
33.66
32.85
32.10
31.10
29.78
28.26
26.77
25.45
24.23
22.81
20.76
17.71
13.50
8.24
2.19
-4.29
-10.93
-17.55
-24.05
-30.34
-36.33
-41.98
-47.41
-52.95
-59.10
-66.28
-74.50
-83.03
-90.31
-94.32
-93.17
-85.79
-72.38
-54.39
-34.07
-13.70
5.00
21.22
34.94
46.55
56.37
64.48
70.63
74.55
76.13
75.60
73.47
70.37
66.86
63.31
59.89
56.71
53.81
51.26
49.05
47.08
45.11
42.85
39.97
36.24
31.52
25.82
19.24
12.05
4.56
-2.87
-10.02
-16.80
-23.20
-29.34
-35.30
-41.19
-47.20
-53.64
-60.98
-69.52
-79.18
-89.04
-97.37
-101.96
-100.79
-92.80
-78.27
-58.83
-36.92
-15.00
5.11
22.56
37.28
49.63
59.95
68.37
74.81
79.09
81.16
81.18
79.53
76.71
73.28
69.68
66.22
63.05
60.21
57.72
55.62
53.94
52.56
51.23
49.49
46.84
42.87
37.42
30.64
22.84
14.32
5.29
-4.20
-14.08
-24.18
-34.12
-43.41
-51.58
-58.48
-64.32
-69.67
-75.35
-82.14
-90.50
-100.22
-110.28
-118.83
-123.58
-122.39
-114.02
-98.65
-77.97
-54.70
-31.75
-11.37
5.37
18.51
28.77
36.89
43.26
47.83
50.35
50.73
49.22
46.40
42.99
39.65
36.73
34.38
32.61
31.41
30.82
30.88
31.55
32.63
33.71
34.34
34.07
32.62
29.92
26.09
21.38
16.08
10.41
4.55
-1.40
-7.30
-13.03
-18.46
-23.55
-28.44
-33.55
-39.46
-46.74
-55.52
-65.15
-74.11
-80.24
-81.38
-76.11
-64.22
-46.88
-26.21
-4.60
15.92
34.10
49.47
62.08
72.14
79.74
84.86
87.47
87.68
85.91
82.84
79.24
75.72
72.60
69.79
67.02
64.01
60.74
57.42
54.46
52.09
50.22
48.32
45.60
41.35
35.33
27.83
19.70
11.89
5.14
-0.37
-5.04
-9.65
-15.13
-22.19
-31.21
-42.05
-53.97
-65.61
-75.10
-80.44
-80.06
-73.34
-60.85
-44.27
-25.77
-7.43
9.34
23.90
36.24
46.60
55.16
61.92
66.75
69.61
70.59
70.00
68.24
65.71
62.69
59.37
55.89
52.42
49.13
46.16
43.53
41.10
38.59
35.69
32.19
28.01
23.17
17.75
11.77
5.29
-1.61
-8.73
-15.79
-22.49
-28.66
-34.28
-39.61
-45.04
-51.06
-58.16
-66.60
-76.18
-86.08
-94.77
-100.31
-100.89
-95.42
-84.00
-67.94
-49.29
-30.22
-12.32
3.66
17.77
30.40
41.83
51.98
60.37
66.44
69.84
70.67
69.46
66.96
63.89
60.66
57.38
53.99
50.48
47.03
43.95
41.49
39.65
38.02
35.93
32.70
27.92
21.72
14.72
7.79
1.67
-3.31
-7.39
-11.17
-15.28
-20.10
-25.55
-31.19
-36.41
-40.78
-44.24
-47.15
-50.18
-54.05
-59.36
-66.34
-74.65
-83.36
-91.00
-95.81
-96.21
-91.30
-81.16
-66.88
-50.20
-32.99
-16.71
-2.20
10.27
20.76
29.36
36.12
41.03
44.11
45.56
45.67
44.81
43.32
41.49
39.52
37.55
35.69
34.11
32.98
32.48
32.68
33.44
34.36
34.86
34.35
32.40
28.99
24.46
19.46
14.71
10.67
7.45
4.77
2.17
-0.81
-4.32
-8.25
-12.24
-15.90
-19.06
-21.79
-24.45
-27.47
-31.26
-36.11
-42.11
-49.09
-56.53
-63.47
-68.57
-70.40
-67.84
-60.52
-49.05
-34.93
-20.05
-6.15
5.69
15.14
22.49
28.19
32.57
35.70
37.47
37.82
36.94
35.18
33.02
30.88
29.01
27.55
26.48
25.77
25.35
25.07
24.77
24.22
23.22
21.60
19.20
15.97
11.93
7.24
2.20
-2.81
-7.42
-11.40
-14.69
-17.46
-19.99
-22.56
-25.30
-28.23
-31.24
-34.35
-37.78
-41.93
-47.09
-53.09
-59.03
-63.30
-64.09
-60.02
-50.76
-37.23
-21.27
-5.05
9.65
21.80
31.18
38.05
42.90
46.06
47.78
48.13
47.24
45.28
42.53
39.37
36.16
33.21
30.66
28.48
26.53
24.65
22.78
21.00
19.47
18.23
17.18
16.05
14.50
12.31
9.41
5.88
1.91
-2.32
-6.68
-11.04
-15.25
-19.20
-22.78
-26.01
-29.00
-31.90
-34.89
-38.19
-42.10
-46.94
-52.86
-59.48
-65.75
-70.08
-70.75
-66.63
-57.73
-45.23
-31.12
-17.43
-5.57
4.02
11.66
17.94
23.30
27.79
31.23
33.39
34.22
33.94
32.86
31.28
29.42
27.42
25.47
23.74
22.44
21.67
21.40
21.41
21.39
20.99
19.89
17.90
15.01
11.40
7.44
3.52
-0.07
-3.29
-6.35
-9.62
-13.46
-17.99
-22.99
-28.03
-32.61
-36.44
-39.56
-42.43
-45.76
-50.30
-56.45
-63.98
-71.84
-78.34
-81.57
-80.04
-73.23
-61.77
-47.26
-31.70
-16.87
-3.90
6.86
15.56
22.53
27.99
31.98
34.47
35.54
35.44
34.59
33.42
32.21
31.00
29.69
28.12
26.29
24.39
22.78
21.79
21.57
21.83
21.99
21.38
19.50
16.30
12.18
7.83
3.89
0.69
-1.86
-4.22
-6.93
-10.36
-14.54
-19.19
-23.85
-28.10
-31.74
-34.83
-37.64
-40.56
-44.04
-48.51
-54.29
-61.37
-69.22
-76.58
-81.69
-82.72
-78.36
-68.49
-54.20
-37.54
-20.86
-6.04
5.96
15.17
22.19
27.83
32.56
36.45
39.28
40.76
40.80
39.62
37.67
35.44
33.35
31.60
30.27
29.35
28.80
28.50
28.26
27.79
26.79
25.08
22.65
19.67
16.35
12.83
9.14
5.22
1.07
-3.27
-7.60
-11.74
-15.55
-19.02
-22.33
-25.75
-29.68
-34.51
-40.52
-47.70
-55.53
-62.92
-68.34
-70.15
-67.13
-58.95
-46.34
-30.89
-14.58
0.82
14.18
25.10
33.69
40.27
45.09
48.23
49.76
49.80
48.60
46.51
43.94
41.19
38.50
36.01
33.76
31.80
30.08
28.56
27.21
25.95
24.71
23.31
21.48
18.89
15.24
10.42
4.56
-1.93
-8.53
-14.74
-20.26
-25.07
-29.42
-33.80
-38.83
-45.07
-52.81
-61.72
-70.78
-78.25
-82.16
-80.88
-73.77
-61.44
-45.52
-28.14
-11.23
4.02
17.14
28.21
37.42
44.85
50.39
53.97
55.70
55.87
54.96
53.38
51.40
49.14
46.65
44.05
41.54
39.32
37.47
35.87
34.24
32.23
29.63
26.44
22.76
18.70
14.26
9.32
3.78
-2.32
-8.76
-15.17
-21.21
-26.70
-31.67
-36.28
-40.78
-45.43
-50.54
-56.49
-63.55
-71.60
-79.84
-86.66
-90.03
-88.11
-79.99
-66.13
-48.31
-28.94
-10.29
6.14
19.89
31.20
40.58
48.42
54.74
59.34
62.02
62.77
61.82
59.65
56.81
53.76
50.82
48.13
45.70
43.59
41.88
40.69
40.05
39.80
39.48
38.49
36.24
32.49
27.40
21.54
15.67
10.35
5.76
1.63
-2.62
-7.53
-13.36
-19.91
-26.67
-32.99
-38.44
-42.92
-46.77
-50.63
-55.33
-61.59
-69.66
-79.12
-88.65
-96.24
-99.68
-97.24
-88.33
-73.73
-55.38
-35.65
-16.69
0.20
14.57
26.59
36.64
44.89
51.28
55.66
58.01
58.56
57.83
56.40
54.71
52.92
50.89
48.49
45.70
42.85
40.45
38.97
38.51
38.70
38.71
37.61
34.76
30.10
24.13
17.75
11.82
6.87
2.89
-0.57
-4.14
-8.32
-13.26
-18.72
-24.14
-28.99
-32.95
-36.16
-39.17
-42.80
-47.82
-54.65
-63.05
-71.98
-79.65
-84.00
-83.22
-76.36
-63.71
-46.69
-27.44
-8.12
9.61
24.92
37.60
47.82
55.75
61.43
64.81
65.96
65.20
63.08
60.25
57.29
54.57
52.27
50.39
48.91
47.79
47.02
46.47
45.90
44.99
43.36
40.75
37.06
32.48
27.31
21.95
16.69
11.63
6.61
1.36
-4.42
-10.80
-17.64
-24.61
-31.38
-37.88
-44.38
-51.45
-59.59
-68.81
-78.30
-86.40
-91.07
-90.54
-83.96
-71.80
-55.62
-37.57
-19.66
-3.29
10.90
22.81
32.56
40.25
45.87
49.45
51.20
51.49
50.87
49.77
48.48
47.03
45.32
43.28
40.99
38.76
37.01
36.00
35.66
35.55
34.91
33.07
29.74
25.15
19.94
14.81
10.21
6.07
2.00
-2.49
-7.65
-13.33
-19.10
-24.45
-29.10
-33.11
-36.85
-40.90
-45.85
-52.16
-59.89
-68.50
-76.74
-82.82
-84.85
-81.49
-72.47
-58.70
-42.01
-24.48
-7.85
6.86
19.34
29.70
38.13
44.74
49.51
52.48
53.84
53.93
53.16
51.82
50.09
47.99
45.52
42.80
40.11
37.83
36.32
35.68
35.68
35.78
35.29
33.64
30.57
26.20
21.06
15.76
10.88
6.71
3.16
-0.17
-3.79
-8.12
-13.24
-18.89
-24.55
-29.69
-34.02
-37.66
-41.06
-44.92
-49.86
-56.23
-63.93
-72.25
-79.93
-85.30
-86.73
-83.04
-73.98
-60.31
-43.66
-25.98
-9.07
5.91
18.47
28.59
36.48
42.33
46.26
48.39
48.94
48.23
46.65
44.52
42.09
39.54
37.04
34.74
32.76
31.25
30.26
29.72
29.49
29.27
28.73
27.50
25.31
22.06
17.91
13.24
8.54
4.20
0.43
-2.86
-5.96
-9.24
-12.92
-17.04
-21.42
-25.74
-29.65
-32.94
-35.58
-37.87
-40.34
-43.70
-48.59
-55.30
-63.46
-71.90
-78.79
-82.12
-80.30
-72.73
-60.03
-43.87
-26.40
-9.62
5.10
17.16
26.56
33.57
38.47
41.43
42.60
42.21
40.67
38.50
36.24
34.25
32.63
31.21
29.78
28.19
26.50
24.93
23.75
23.05
22.66
22.16
21.02
18.85
15.53
11.35
6.83
2.58
-1.05
-4.06
-6.84
-9.93
-13.72
-18.23
-23.06
-27.59
-31.32
-34.12
-36.37
-38.81
-42.21
-47.12
-53.45
-60.43
-66.59
-70.08
-69.18
-62.85
-51.18
-35.39
-17.57
0.06
15.76
28.63
38.61
46.05
51.34
54.62
55.82
54.93
52.22
48.38
44.28
40.70
38.09
36.42
35.29
34.17
32.65
30.62
28.24
25.86
23.76
21.99
20.34
18.39
15.62
11.71
6.62
0.66
-5.59
-11.49
-16.54
-20.61
-23.96
-27.15
-30.88
-35.74
-42.05
-49.77
-58.36
-66.82
-73.67
-77.28
-76.21
-69.72
-58.08
-42.62
-25.31
-8.21
7.07
19.64
29.33
36.41
41.30
44.42
46.12
46.70
46.34
45.19
43.33
40.85
37.92
34.84
31.97
29.68
28.14
27.32
26.96
26.64
25.94
24.50
22.16
18.98
15.23
11.20
7.11
2.96
-1.45
-6.35
-11.85
-17.82
-23.87
-29.53
-34.49
-38.72
-42.55
-46.57
-51.40
-57.48
-64.79
-72.64
-79.68
-84.09
-84.05
-78.38
-67.03
-51.17
-32.86
-14.39
2.42
16.62
28.09
37.26
44.63
50.43
54.67
57.16
57.85
56.88
54.61
51.51
47.95
44.17
40.28
36.39
32.73
29.60
27.29
25.85
25.02
24.24
22.86
20.41
16.77
12.20
7.20
2.22
-2.52
-7.06
-11.68
-16.56
-21.75
-27.00
-31.93
-36.28
-40.05
-43.57
-47.47
-52.41
-58.89
-66.96
-75.99
-84.72
-91.34
-93.98
-91.18
-82.42
-68.37
-50.71
-31.66
-13.31
2.88
16.31
27.03
35.38
41.73
46.22
48.88
49.81
49.22
47.55
45.27
42.78
40.31
37.94
35.72
33.75
32.16
31.10
30.54
30.18
29.57
28.20
25.80
22.38
18.22
13.72
9.18
4.73
0.24
-4.49
-9.60
-15.06
-20.68
-26.14
-31.19
-35.75
-40.02
-44.52
-49.92
-56.78
-65.23
-74.59
-83.29
-89.19
-90.14
-84.77
-72.97
-56.12
-36.59
-17.00
0.57
15.09
26.54
35.52
42.68
48.28
52.16
53.96
53.58
51.38
48.21
45.04
42.60
41.06
40.07
39.01
37.39
35.13
32.55
30.18
28.39
27.18
26.15
24.61
21.95
17.85
12.44
6.19
-0.25
-6.37
-11.93
-17.03
-22.05
-27.42
-33.51
-40.56
-48.69
-57.88
-67.90
-78.06
-87.10
-93.22
-94.56
-89.74
-78.53
-62.02
-42.27
-21.71
-2.33
14.74
29.21
41.22
50.90
58.18
62.82
64.73
64.20
61.89
58.66
55.27
52.11
49.22
46.44
43.55
40.52
37.52
34.81
32.60
30.85
29.23
27.18
24.08
19.52
13.43
6.16
-1.67
-9.33
-16.36
-22.57
-28.24
-33.94
-40.44
-48.47
-58.37
-69.75
-81.30
-90.82
-95.78
-94.16
-85.16
-69.67
-49.96
-28.89
-8.94
8.47
23.10
35.46
46.14
55.34
62.72
67.72
69.95
69.53
67.12
63.66
60.06
56.86
54.17
51.74
49.22
46.44
43.43
40.48
37.89
35.77
33.86
31.65
28.47
23.79
17.43
9.67
1.20
-7.16
-14.69
-21.07
-26.47
-31.40
-36.61
-42.78
-50.45
-59.84
-70.74
-82.35
-93.15
-101.12
-104.12
-100.59
-90.12
-73.66
-53.24
-31.31
-10.01
9.33
26.21
40.68
53.01
63.35
71.70
77.96
82.09
84.18
84.46
83.28
81.03
78.12
74.90
71.64
68.56
65.78
63.36
61.28
59.43
57.51
55.13
51.84
47.26
41.28
34.14
26.36
18.63
11.55
5.41
0.09
-4.84
-9.96
-15.74
-22.36
-29.65
-37.16
-44.38
-50.85
-56.41
-61.22
-65.81
-70.91
-77.30
-85.53
-95.58
-106.54
-116.60
-123.31
-124.31
-118.06
-104.48
-85.00
-62.13
-38.60
-16.57
2.79
19.29
33.27
45.10
54.90
62.50
67.65
70.36
70.93
69.98
68.17
66.08
64.01
62.03
60.10
58.24
56.63
55.49
55.00
55.09
55.36
55.15
53.72
50.54
45.51
39.05
31.98
25.18
19.30
14.47
10.31
6.15
1.35
-4.37
-10.79
-17.36
-23.41
-28.54
-32.73
-36.38
-40.18
-44.91
-51.24
-59.47
-69.35
-79.87
-89.29
-95.50
-96.46
-90.97
-79.01
-61.83
-41.57
-20.55
-0.68
16.88
31.71
43.80
53.29
60.23
64.67
66.76
66.83
65.42
63.13
60.45
57.74
55.18
52.94
51.16
50.00
49.54
49.62
49.84
49.60
48.27
45.43
41.02
35.38
29.10
22.84
17.03
11.78
6.88
1.89
-3.51
-9.44
-15.70
-21.90
-27.64
-32.76
-37.44
-42.21
-47.81
-54.92
-63.81
-74.03
-84.28
-92.55
-96.64
-94.82
-86.47
-72.32
-54.26
-34.69
-15.74
1.22
15.72
27.91
38.10
46.44
52.84
57.16
59.42
59.90
59.11
57.56
55.66
53.57
51.32
48.93
46.56
44.53
43.18
42.70
42.93
43.32
43.07
41.41
37.87
32.54
26.01
19.24
13.11
8.09
4.07
0.40
-3.74
-8.98
-15.36
-22.37
-29.09
-34.78
-39.13
-42.52
-45.79
-49.96
-55.78
-63.45
-72.46
-81.62
-89.25
-93.48
-92.76
-86.29
-74.31
-58.12
-39.69
-21.09
-3.94
10.95
23.45
33.79
42.28
49.03
54.00
57.16
58.61
58.66
57.73
56.17
54.21
51.96
49.49
46.97
44.65
42.82
41.63
41.03
40.71
40.19
38.97
36.68
33.19
28.62
23.35
17.86
12.64
8.01
4.00
0.35
-3.34
-7.48
-12.30
-17.72
-23.38
-28.80
-33.56
-37.49
-40.77
-43.85
-47.37
-51.92
-57.89
-65.27
-73.57
-81.74
-88.33
-91.69
-90.41
-83.77
-72.03
-56.38
-38.69
-20.98
-4.85
8.75
19.57
27.86
34.05
38.52
41.50
43.11
43.41
42.56
40.78
38.45
35.98
33.75
31.99
30.82
30.16
29.90
29.90
29.99
30.02
29.76
28.92
27.18
24.32
20.36
15.62
10.68
6.14
2.38
-0.61
-3.27
-6.26
-10.10
-14.93
-20.40
-25.86
-30.65
-34.41
-37.27
-39.79
-42.73
-46.83
-52.54
-59.71
-67.55
-74.58
-78.98
-79.04
-73.74
-63.15
-48.47
-31.69
-14.93
0.17
12.83
23.07
31.37
38.20
43.67
47.57
49.61
49.69
48.15
45.62
42.85
40.40
38.46
36.95
35.66
34.43
33.21
32.03
30.87
29.54
27.76
25.21
21.73
17.34
12.30
7.00
1.80
-3.08
-7.65
-12.03
-16.42
-20.91
-25.43
-29.82
-33.96
-37.88
-41.86
-46.42
-52.05
-58.92
-66.56
-73.75
-78.72
-79.59
-75.13
-65.19
-50.91
-34.31
-17.63
-2.65
9.75
19.53
27.15
33.11
37.66
40.76
42.29
42.24
40.84
38.53
35.75
32.84
29.92
27.06
24.36
22.06
20.46
19.80
20.08
20.98
21.96
22.46
22.04
20.56
18.06
14.78
10.94
6.76
2.33
-2.29
-7.14
-12.19
-17.40
-22.59
-27.50
-31.96
-35.94
-39.71
-43.87
-49.11
-55.89
-64.06
-72.63
-79.78
-83.40
-81.71
-73.96
-60.73
-43.77
-25.42
-7.82
7.59
20.24
30.24
37.99
43.85
48.06
50.76
52.10
52.25
51.34
49.49
46.80
43.44
39.68
35.92
32.59
30.04
28.48
27.89
28.02
28.41
28.44
27.49
25.13
21.35
16.52
11.34
6.46
2.21
-1.54
-5.31
-9.66
-14.84
-20.64
-26.48
-31.70
-35.96
-39.40
-42.64
-46.49
-51.68
-58.52
-66.72
-75.30
-82.72
-87.15
-86.93
-81.13
-69.83
-54.20
-36.16
-17.79
-0.79
13.89
26.00
35.73
43.36
48.99
52.55
53.97
53.33
50.98
47.46
43.36
39.17
35.24
31.72
28.75
26.41
24.78
23.80
23.26
22.72
21.73
19.92
17.17
13.68
9.85
6.05
2.47
-0.97
-4.52
-8.38
-12.55
-16.82
-20.84
-24.34
-27.33
-30.09
-33.12
-36.99
-42.11
-48.57
-55.94
-63.20
-68.81
-71.03
-68.44
-60.43
-47.57
-31.40
-13.97
2.77
17.53
29.81
39.69
47.44
53.24
57.04
58.66
58.11
55.63
51.83
47.47
43.24
39.60
36.71
34.43
32.54
30.86
29.31
27.88
26.52
25.13
23.45
21.22
18.20
14.26
9.45
3.95
-1.98
-8.00
-13.85
-19.31
-24.29
-28.82
-33.06
-37.26
-41.79
-47.12
-53.62
-61.29
-69.54
-76.96
-81.65
-81.67
-75.78
-64.02
-47.72
-29.10
-10.55
6.12
20.04
31.20
40.05
47.03
52.31
55.78
57.27
56.81
54.72
51.60
48.14
44.88
42.09
39.77
37.74
35.82
33.90
32.02
30.21
28.41
26.49
24.23
21.43
17.97
13.82
9.02
3.70
-1.99
-7.84
-13.60
-19.09
-24.24
-29.14
-33.99
-39.02
-44.47
-50.54
-57.40
-65.15
-73.59
-81.97
-88.90
-92.56
-91.19
-83.77
-70.50
-52.84
-33.08
-13.61
3.74
18.07
29.41
38.32
45.47
51.31
55.96
59.27
61.02
61.15
59.76
57.21
53.99
50.58
47.41
44.80
42.88
41.63
40.88
40.25
39.30
37.61
34.90
31.14
26.53
21.49
16.43
11.65
7.18
2.71
-2.24
-8.09
-14.98
-22.63
-30.46
-37.80
-44.25
-49.80
-54.83
-60.01
-65.96
-73.05
-81.13
-89.40
-96.41
-100.31
-99.37
-92.55
-79.95
-62.90
-43.54
-24.20
-6.65
8.22
20.36
30.21
38.23
44.61
49.28
52.09
53.00
52.17
50.02
47.06
43.85
40.86
38.41
36.69
35.65
35.11
34.72
34.16
33.12
31.45
29.09
26.13
22.65
18.72
14.34
9.51
4.24
-1.36
-7.10
-12.70
-17.87
-22.49
-26.59
-30.40
-34.28
-38.56
-43.60
-49.63
-56.68
-64.34
-71.58
-76.78
-78.04
-73.80
-63.49
-47.85
-28.83
-8.96
9.50
25.12
37.58
47.25
54.72
60.35
64.14
65.90
65.56
63.39
59.97
56.06
52.30
49.07
46.43
44.24
42.26
40.27
38.14
35.87
33.54
31.21
28.85
26.27
23.08
18.82
13.24
6.42
-1.20
-8.86
-15.92
-21.99
-27.17
-31.93
-36.90
-42.69
-49.68
-57.96
-67.17
-76.41
-84.26
-88.92
-88.67
-82.45
-70.30
-53.52
-34.33
-15.11
2.33
17.11
29.29
39.35
47.73
54.48
59.26
61.74
61.89
60.11
57.15
53.75
50.39
47.23
44.20
41.30
38.66
36.48
34.90
33.74
32.58
30.85
28.12
24.26
19.45
14.05
8.40
2.70
-3.03
-8.83
-14.74
-20.68
-26.50
-32.00
-37.00
-41.48
-45.69
-50.15
-55.57
-62.54
-71.12
-80.50
-88.98
-94.28
-94.31
-87.89
-75.20
-57.79
-37.99
-18.19
-0.12
15.41
28.37
39.10
47.89
54.76
59.55
62.11
62.57
61.35
59.07
56.35
53.51
50.62
47.57
44.32
41.00
38.01
35.70
34.26
33.49
32.87
31.70
29.43
25.82
21.07
15.64
10.08
4.77
-0.18
-5.00
-10.02
-15.48
-21.36
-27.38
-33.09
-38.19
-42.66
-46.90
-51.60
-57.51
-65.04
-73.98
-83.29
-91.17
-95.47
-94.35
-86.96
-73.76
-56.48
-37.49
-19.07
-2.79
10.79
21.88
30.97
38.50
44.57
48.98
51.52
52.15
51.12
48.94
46.23
43.52
41.10
39.05
37.25
35.56
33.91
32.31
30.78
29.29
27.68
25.68
23.06
19.61
15.28
10.16
4.45
-1.57
-7.57
-13.30
-18.59
-23.45
-28.01
-32.48
-37.07
-42.01
-47.54
-53.88
-61.14
-68.99
-76.49
-82.05
-83.79
-80.14
-70.57
-55.83
-37.84
-18.95
-1.24
14.10
26.73
36.93
45.06
51.24
55.38
57.32
57.16
55.31
52.50
49.51
46.93
45.05
43.80
42.88
41.90
40.60
38.89
36.89
34.76
32.59
30.19
27.18
23.04
17.47
10.56
2.88
-4.71
-11.39
-16.67
-20.64
-23.89
-27.30
-31.76
-37.88
-45.76
-54.85
-63.87
-71.06
-74.50
-72.76
-65.32
-52.77
-36.71
-19.11
-1.81
13.98
27.68
39.20
48.60
55.85
60.81
63.44
63.89
62.67
60.46
57.91
55.49
53.34
51.36
49.37
47.32
45.33
43.63
42.48
41.87
41.51
40.80
38.99
35.48
30.03
22.87
14.70
6.38
-1.38
-8.33
-14.76
-21.31
-28.74
-37.57
-48.00
-59.86
-72.56
-85.12
-96.08
-103.68
-106.13
-102.23
-91.81
-75.95
-56.73
-36.56
-17.47
-0.64
13.64
25.60
35.57
43.63
49.61
53.32
54.73
54.15
52.16
49.39
46.41
43.55
40.97
38.68
36.61
34.73
32.99
31.30
29.56
27.57
25.10
21.92
17.81
12.69
6.61
-0.16
-7.22
-14.13
-20.50
-26.16
-31.20
-35.92
-40.72
-46.06
-52.33
-59.78
-68.37
-77.63
-86.43
-93.13
-95.88
-93.19
-84.49
-70.38
-52.48
-32.94
-13.87
3.23
17.59
29.11
38.07
44.87
49.83
53.17
55.01
55.43
54.54
52.49
49.52
45.93
42.06
38.32
35.08
32.68
31.28
30.81
30.90
30.91
30.14
28.04
24.44
19.58
14.01
8.30
2.85
-2.22
-7.04
-11.80
-16.58
-21.34
-25.96
-30.29
-34.31
-38.03
-41.56
-45.10
-48.96
-53.56
-59.33
-66.39
-74.25
-81.66
-86.72
-87.46
-82.46
-71.43
-55.35
-36.19
-16.29
2.28
18.19
30.95
40.70
47.87
52.87
55.96
57.25
56.78
54.71
51.40
47.37
43.23
39.51
36.60
34.56
33.24
32.30
31.39
30.27
28.86
27.16
25.19
22.90
20.12
16.61
12.20
6.87
0.88
-5.29
-11.12
-16.11
-20.08
-23.16
-25.81
-28.69
-32.52
-37.87
-44.93
-53.33
-62.02
-69.33
-73.34
-72.39
-65.71
-53.67
-37.78
-20.15
-2.78
12.97
26.53
37.97
47.46
54.99
60.23
62.82
62.66
60.14
56.12
51.60
47.37
43.80
40.80
38.01
35.09
31.91
28.64
25.58
23.01
20.95
19.08
16.85
13.63
9.03
3.05
-3.84
-10.90
-17.42
-22.95
-27.51
-31.46
-35.37
-39.79
-45.12
-51.55
-58.98
-66.93
-74.42
-79.99
-81.90
-78.70
-69.75
-55.56
-37.76
-18.62
-0.35
15.50
28.30
38.17
45.66
51.33
55.48
58.15
59.28
58.84
56.96
53.97
50.31
46.44
42.76
39.49
36.69
34.27
32.03
29.82
27.50
25.03
22.33
19.33
15.84
11.66
6.64
0.78
-5.70
-12.38
-18.80
-24.58
-29.55
-33.79
-37.66
-41.66
-46.40
-52.40
-59.85
-68.41
-77.04
-84.10
-87.72
-86.29
-79.12
-66.65
-50.34
-32.25
-14.32
2.05
16.20
28.03
37.71
45.39
51.08
54.74
56.42
56.38
55.04
52.86
50.22
47.30
44.16
40.85
37.55
34.56
32.21
30.72
30.00
29.65
29.03
27.51
24.72
20.72
15.93
10.98
6.34
2.17
-1.82
-6.12
-11.20
-17.18
-23.75
-30.27
-36.10
-40.90
-44.80
-48.40
-52.56
-58.10
-65.43
-74.24
-83.39
-90.97
-94.81
-93.09
-85.02
-71.17
-53.31
-33.82
-14.99
1.68
15.56
26.80
35.84
43.05
48.55
52.27
54.08
53.98
52.19
49.15
45.44
41.71
38.48
36.05
34.43
33.37
32.59
31.83
31.00
30.07
28.99
27.56
25.50
22.52
18.53
13.73
8.47
3.15
-1.98
-6.90
-11.71
-16.54
-21.41
-26.20
-30.79
-35.13
-39.43
-44.09
-49.62
-56.21
-63.41
-70.00
-74.10
-73.76
-67.66
-55.72
-39.22
-20.44
-1.87
14.57
27.96
38.38
46.38
52.51
56.98
59.66
60.32
58.98
55.99
52.04
47.93
44.31
41.53
39.58
38.21
37.06
35.81
34.28
32.48
30.52
28.48
26.36
23.94
20.91
16.94
11.90
5.89
-0.73
-7.45
-13.79
-19.43
-24.28
-28.50
-32.44
-36.53
-41.26
-47.00
-53.96
-61.98
-70.40
-77.98
-83.07
-84.04
-79.68
-69.75
-55.05
-37.28
-18.57
-0.87
14.49
26.93
36.55
43.77
49.00
52.52
54.41
54.75
53.68
51.50
48.58
45.31
41.96
38.76
35.87
33.50
31.79
30.77
30.26
29.89
29.16
27.67
25.21
21.83
17.83
13.58
9.37
5.33
1.36
-2.78
-7.23
-12.01
-16.85
-21.44
-25.53
-29.11
-32.50
-36.23
-40.87
-46.84
-54.19
-62.42
-70.42
-76.61
-79.27
-77.07
-69.55
-57.40
-42.23
-26.07
-10.76
2.55
13.48
22.20
29.07
34.35
38.15
40.48
41.43
41.19
40.07
38.44
36.59
34.73
32.95
31.32
29.89
28.76
28.07
27.88
28.11
28.49
28.57
27.83
25.83
22.43
17.83
12.57
7.31
2.69
-1.01
-3.94
-6.59
-9.56
-13.26
-17.71
-22.50
-27.09
-31.03
-34.25
-37.04
-39.89
-43.40
-48.01
-53.96
-61.13
-68.85
-75.85
-80.34
-80.47
-74.96
-63.68
-47.79
-29.39
-10.86
5.90
19.86
30.86
39.27
45.54
49.98
52.71
53.84
53.55
52.17
50.06
47.59
44.99
42.42
39.99
37.81
36.06
34.89
34.36
34.35
34.51
34.36
33.42
31.33
28.00
23.69
18.84
14.02
9.65
5.88
2.51
-0.89
-4.71
-9.19
-14.22
-19.42
-24.34
-28.61
-32.18
-35.25
-38.33
-42.07
-47.07
-53.63
-61.44
-69.39
-75.71
-78.35
-75.66
-66.99
-53.00
-35.48
-16.78
0.91
16.09
28.18
37.29
43.86
48.26
50.65
51.05
49.50
46.34
42.18
37.83
33.98
31.06
29.07
27.73
26.63
25.47
24.18
22.87
21.68
20.60
19.42
17.77
15.21
11.45
6.48
0.60
-5.67
-11.73
-17.13
-21.68
-25.49
-28.91
-32.38
-36.32
-41.09
-46.89
-53.74
-61.30
-68.83
-75.08
-78.53
-77.77
-71.94
-61.15
-46.47
-29.65
-12.56
3.22
16.76
27.76
36.28
42.59
46.90
49.39
50.18
49.47
47.50
44.59
41.14
37.53
34.10
31.03
28.40
26.14
24.16
22.35
20.65
19.02
17.36
15.50
13.19
10.17
6.24
1.38
-4.21
-10.18
-16.09
-21.57
-26.46
-30.78
-34.77
-38.79
-43.25
-48.59
-55.15
-63.00
-71.66
-79.96
-86.13
-88.17
-84.55
-74.80
-59.78
-41.52
-22.45
-4.72
10.44
22.77
32.66
40.67
47.15
52.09
55.29
56.65
56.28
54.54
51.89
48.77
45.43
42.04
38.76
35.72
33.12
31.09
29.63
28.53
27.48
26.06
23.91
20.81
16.75
11.87
6.42
0.66
-5.17
-10.96
-16.65
-22.25
-27.78
-33.25
-38.60
-43.77
-48.80
-53.87
-59.42
-65.95
-73.80
-82.67
-91.43
-98.19
-100.75
-97.42
-87.62
-72.22
-53.24
-33.22
-14.40
1.82
15.04
25.62
34.20
41.34
47.24
51.78
54.67
55.71
54.88
52.48
49.03
45.17
41.48
38.40
36.16
34.83
34.28
34.25
34.35
34.11
33.09
31.00
27.77
23.55
18.65
13.39
7.96
2.47
-3.10
-8.74
-14.38
-19.89
-25.15
-30.12
-34.84
-39.49
-44.35
-49.79
-56.21
-63.81
-72.33
-80.86
-87.82
-91.24
-89.39
-81.33
-67.41
-49.17
-28.90
-8.91
9.09
24.31
36.76
46.86
54.96
61.14
65.24
67.09
66.73
64.61
61.41
57.89
54.68
52.08
50.15
48.75
47.63
46.54
45.28
43.69
41.67
39.19
36.24
32.79
28.75
24.00
18.44
12.11
5.21
-1.87
-8.69
-14.89
-20.38
-25.34
-30.22
-35.54
-41.84
-49.47
-58.47
-68.42
-78.32
-86.63
-91.51
-91.32
-85.12
-73.05
-56.34
-36.98
-17.07
1.69
18.32
32.51
44.35
54.00
61.50
66.84
70.02
71.18
70.69
68.98
66.49
63.55
60.43
57.34
54.51
52.18
50.49
49.33
48.33
46.91
44.54
40.89
36.00
30.25
24.16
18.20
12.55
7.12
1.56
-4.45
-11.10
-18.23
-25.46
-32.25
-38.20
-43.21
-47.58
-52.03
-57.43
-64.50
-73.36
-83.16
-92.14
-98.01
-98.64
-92.81
-80.69
-63.69
-44.00
-23.79
-4.66
12.54
27.57
40.41
51.00
59.25
65.11
68.74
70.48
70.81
70.09
68.55
66.30
63.38
60.01
56.48
53.25
50.71
49.07
48.29
48.02
47.67
46.61
44.27
40.37
35.02
28.73
22.26
16.32
11.27
7.01
2.98
-1.53
-7.03
-13.60
-20.81
-28.01
-34.59
-40.31
-45.32
-50.07
-55.15
-61.08
-68.22
-76.60
-85.76
-94.55
-101.21
-103.75
-100.55
-91.02
-75.92
-57.16
-37.12
-17.88
-0.73
13.94
26.32
36.68
45.18
51.72
56.20
58.64
59.27
58.41
56.39
53.51
50.04
46.33
42.82
39.97
38.08
37.20
37.08
37.22
37.07
36.17
34.27
31.29
27.40
22.87
18.09
13.48
9.35
5.76
2.53
-0.76
-4.58
-9.19
-14.52
-20.23
-25.82
-30.84
-35.11
-38.76
-42.16
-45.92
-50.66
-56.88
-64.67
-73.49
-82.07
-88.53
-90.87
-87.56
-78.12
-63.30
-44.89
-25.15
-6.20
10.51
24.26
35.04
43.14
49.01
53.00
55.39
56.38
56.13
54.80
52.61
49.86
46.93
44.25
42.17
40.91
40.45
40.56
40.84
40.85
40.22
38.68
36.16
32.68
28.36
23.39
18.01
12.48
7.06
1.87
-3.05
-7.82
-12.63
-17.57
-22.62
-27.59
-32.30
-36.69
-41.07
-45.99
-52.10
-59.67
-68.23
-76.44
-82.32
-83.89
-79.79
-69.88
-55.18
-37.61
-19.31
-2.08
12.97
25.46
35.49
43.33
49.20
53.22
55.43
55.98
55.13
53.25
50.78
48.07
45.34
42.68
40.18
37.91
35.98
34.49
33.38
32.44
31.31
29.58
26.98
23.41
19.01
14.09
9.02
4.04
-0.76
-5.56
-10.62
-16.12
-22.04
-28.09
-33.82
-38.91
-43.27
-47.18
-51.21
-56.07
-62.29
-70.00
-78.65
-86.97
-93.14
-95.24
-91.82
-82.39
-67.72
-49.62
-30.38
-12.09
3.93
17.23
28.06
36.93
44.24
50.13
54.51
57.26
58.35
57.95
56.36
53.91
50.93
47.70
44.50
41.61
39.31
37.80
37.10
36.94
36.86
36.21
34.45
31.27
26.73
21.26
15.50
10.09
5.39
1.41
-2.22
-6.07
-10.60
-15.94
-21.86
-27.86
-33.38
-38.11
-42.12
-45.83
-49.91
-55.06
-61.73
-69.86
-78.66
-86.59
-91.64
-91.92
-86.25
-74.68
-58.51
-39.87
-21.07
-3.95
10.50
22.07
31.09
38.02
43.27
47.09
49.61
50.95
51.17
50.34
48.55
45.96
42.80
39.44
36.32
33.86
32.34
31.73
31.71
31.70
31.10
29.49
26.74
23.05
18.80
14.40
10.11
5.96
1.75
-2.83
-8.06
-13.99
-20.42
-26.94
-33.04
-38.27
-42.46
-45.76
-48.62
-51.81
-56.15
-62.26
-70.23
-79.27
-87.77
-93.57
-94.63
-89.77
-79.12
-64.09
-46.91
-29.83
-14.47
-1.48
9.27
18.32
26.11
32.68
37.76
40.90
41.86
40.80
38.25
34.99
31.73
28.90
26.59
24.65
22.87
21.19
19.66
18.36
17.24
16.10
14.57
12.27
8.99
4.70
-0.43
-6.07
-11.89
-17.58
-22.93
-27.85
-32.37
-36.65
-40.87
-45.30
-50.20
-55.88
-62.51
-69.94
-77.42
-83.56
-86.50
-84.50
-76.54
-62.74
-44.51
-24.04
-3.66
14.80
30.38
42.95
52.83
60.40
65.89
69.29
70.57
69.89
67.66
64.57
61.31
58.43
56.09
54.16
52.30
50.24
47.92
45.49
43.14
40.92
38.62
35.77
31.86
26.55
19.89
12.33
4.57
-2.74
-9.17
-14.75
-19.91
-25.35
-31.83
-39.92
-49.73
-60.59
-71.08
-79.12
-82.55
-79.78
-70.42
-55.53
-37.27
-18.17
-0.35
15.08
28.02
38.90
48.12
55.69
61.26
64.43
65.17
63.94
61.58
58.88
56.29
53.81
51.09
47.80
43.84
39.50
35.30
31.78
29.18
27.28
25.43
22.72
18.37
12.06
4.12
-4.51
-12.69
-19.50
-24.64
-28.54
-32.19
-36.76
-43.14
-51.62
-61.65
-71.84
-80.21
-84.64
-83.39
-75.74
-62.26
-44.60
-25.09
-5.91
11.41
26.23
38.59
48.79
57.06
63.40
67.68
69.83
70.01
68.60
66.10
62.98
59.58
56.07
52.47
48.83
45.26
42.00
39.34
37.39
36.03
34.78
33.01
30.11
25.73
19.89
12.97
5.58
-1.69
-8.42
-14.49
-20.05
-25.42
-30.98
-37.03
-43.84
-51.59
-60.28
-69.61
-78.73
-86.19
-90.19
-89.09
-82.05
-69.38
-52.59
-33.82
-15.22
1.62
15.95
27.68
37.07
44.47
50.18
54.36
57.12
58.47
58.38
56.84
54.00
50.22
46.07
42.19
39.14
37.18
36.20
35.80
35.40
34.44
32.55
29.59
25.73
21.27
16.53
11.70
6.75
1.57
-3.93
-9.70
-15.53
-21.15
-26.34
-31.03
-35.34
-39.49
-43.77
-48.47
-53.91
-60.28
-67.54
-75.13
-81.83
-85.94
-85.70
-79.97
-68.70
-53.10
-35.26
-17.43
-1.35
12.16
23.12
31.99
39.19
44.89
48.98
51.32
51.92
51.00
48.98
46.26
43.24
40.18
37.33
34.85
32.87
31.36
30.17
29.03
27.67
25.87
23.54
20.69
17.35
13.54
9.28
4.59
-0.46
-5.67
-10.78
-15.49
-19.63
-23.16
-26.26
-29.27
-32.68
-37.00
-42.59
-49.47
-57.06
-64.15
-69.04
-70.04
-66.03
-56.95
-43.85
-28.55
-13.00
1.30
13.66
24.06
32.83
40.15
45.94
49.87
51.65
51.32
49.33
46.41
43.36
40.69
38.47
36.47
34.29
31.73
28.90
26.14
23.85
22.19
20.93
19.52
17.29
13.77
8.94
3.22
-2.66
-8.00
-12.42
-15.97
-19.11
-22.50
-26.80
-32.46
-39.56
-47.73
-56.06
-63.24
-67.67
-67.93
-63.25
-53.80
-40.72
-25.77
-10.77
2.93
14.67
24.41
32.37
38.76
43.58
46.69
47.98
47.54
45.73
43.07
40.10
37.24
34.68
32.42
30.38
28.46
26.67
25.00
23.49
22.08
20.64
18.96
16.85
14.14
10.74
6.64
1.95
-3.18
-8.49
-13.77
-18.83
-23.66
-28.36
-33.18
-38.42
-44.40
-51.29
-58.98
-66.87
-73.84
-78.40
-79.04
-74.79
-65.61
-52.49
-37.11
-21.36
-6.74
5.96
16.55
25.27
32.36
37.90
41.83
44.04
44.62
43.75
41.78
39.04
35.84
32.43
29.05
26.00
23.51
21.73
20.59
19.84
19.14
18.18
16.77
14.88
12.53
9.74
6.51
2.78
-1.40
-5.90
-10.47
-14.92
-19.13
-23.10
-26.99
-30.96
-35.09
-39.40
-43.93
-48.82
-54.26
-60.33
-66.68
-72.34
-75.84
-75.62
-70.66
-60.93
-47.46
-32.08
-16.72
-2.90
8.62
17.80
24.98
30.56
34.81
37.82
39.59
40.10
39.44
37.76
35.37
32.65
30.01
27.86
26.40
25.67
25.45
25.36
25.02
24.15
22.68
20.72
18.45
16.00
13.34
10.31
6.68
2.35
-2.55
-7.65
-12.49
-16.72
-20.27
-23.39
-26.53
-30.18
-34.67
-40.14
-46.45
-53.19
-59.57
-64.43
-66.46
-64.48
-57.93
-47.11
-33.21
-17.93
-3.01
10.26
21.27
29.93
36.40
40.91
43.59
44.52
43.90
42.09
39.63
37.02
34.64
32.65
30.98
29.52
28.19
27.00
26.07
25.45
25.00
24.34
22.94
20.37
16.44
11.35
5.59
-0.19
-5.45
-9.90
-13.55
-16.66
-19.67
-23.00
-27.00
-31.94
-37.88
-44.64
-51.61
-57.73
-61.57
-61.70
-57.18
-47.99
-35.15
-20.44
-5.85
7.07
17.58
25.67
31.79
36.36
39.62
41.57
42.20
41.62
40.06
37.84
35.21
32.31
29.21
26.01
22.89
20.07
17.73
15.88
14.41
13.04
11.48
9.44
6.72
3.17
-1.27
-6.46
-12.13
-17.84
-23.17
-27.83
-31.85
-35.55
-39.54
-44.48
-50.82
-58.57
-67.01
-74.75
-79.95
-80.86
-76.36
-66.45
-52.32
-35.90
-19.34
-4.26
8.56
19.07
27.69
34.81
40.65
45.12
48.02
49.19
48.65
46.59
43.41
39.69
35.97
32.73
30.19
28.35
26.99
25.83
24.66
23.42
22.15
20.83
19.32
17.28
14.37
10.33
5.17
-0.79
-7.09
-13.27
-19.02
-24.27
-29.16
-33.92
-38.82
-44.12
-50.05
-56.75
-64.18
-71.92
-79.04
-84.12
-85.57
-82.12
-73.28
-59.64
-42.73
-24.55
-7.02
8.55
21.61
32.22
40.70
47.36
52.27
55.39
56.62
56.04
53.89
50.61
46.71
42.66
38.80
35.35
32.39
29.91
27.83
26.04
24.38
22.67
20.72
18.40
15.61
12.39
8.78
4.83
0.50
-4.26
-9.44
-14.89
-20.27
-25.18
-29.33
-32.71
-35.70
-38.94
-43.12
-48.71
-55.74
-63.73
-71.64
-78.05
-81.33
-80.14
-73.74
-62.34
-47.06
-29.71
-12.27
3.60
16.87
27.18
34.66
39.75
42.85
44.29
44.33
43.22
41.25
38.81
36.26
33.89
31.79
29.91
28.14
26.42
24.79
23.40
22.34
21.55
20.75
19.50
17.34
13.97
9.32
3.64
-2.64
-8.90
-14.57
-19.31
-23.08
-26.24
-29.52
-33.84
-39.94
-48.04
-57.51
-66.79
-73.66
-75.96
-72.26
-62.44
-47.81
-30.55
-13.05
2.88
16.33
27.20
35.82
42.51
47.42
50.51
51.74
51.22
49.24
46.21
42.65
38.99
35.58
32.62
30.17
28.17
26.60
25.47
24.86
24.70
24.69
24.23
22.58
19.13
13.73
6.85
-0.62
-7.65
-13.55
-18.23
-22.25
-26.57
-32.21
-39.87
-49.64
-60.85
-72.05
-81.24
-86.30
-85.61
-78.59
-65.88
-49.22
-30.80
-12.63
4.00
18.56
31.09
41.69
50.37
56.96
61.29
63.43
63.73
62.68
60.75
58.28
55.37
52.08
48.48
44.73
41.10
37.84
35.07
32.75
30.64
28.36
25.55
21.88
17.24
11.68
5.46
-1.07
-7.56
-13.72
-19.43
-24.70
-29.69
-34.64
-39.92
-46.01
-53.32
-61.86
-70.98
-79.16
-84.27
-84.18
-77.65
-64.81
-47.27
-27.49
-7.96
9.51
24.18
36.12
45.74
53.38
59.10
62.78
64.36
64.03
62.21
59.46
56.30
53.06
49.84
46.60
43.26
39.83
36.47
33.47
31.09
29.38
28.10
26.70
24.54
21.07
16.14
9.97
3.09
-3.88
-10.48
-16.52
-22.08
-27.33
-32.43
-37.44
-42.43
-47.58
-53.31
-60.09
-68.12
-76.88
-84.95
-90.14
-90.18
-83.55
-70.23
-51.81
-31.02
-10.80
6.66
20.46
30.87
38.78
45.05
50.08
53.78
55.81
55.92
54.22
51.17
47.43
43.72
40.52
38.04
36.16
34.51
32.69
30.45
27.79
24.97
22.28
19.82
17.39
14.48
10.59
5.41
-0.89
-7.79
-14.51
-20.41
-25.18
-28.93
-32.20
-35.74
-40.29
-46.39
-54.10
-62.89
-71.47
-78.00
-80.56
-77.66
-68.85
-54.87
-37.49
-18.87
-0.98
14.91
28.27
38.99
47.08
52.46
55.04
54.98
52.89
49.69
46.41
43.73
41.79
40.27
38.59
36.36
33.55
30.57
27.98
26.23
25.35
24.83
23.83
21.48
17.25
11.17
3.91
-3.52
-10.18
-15.56
-19.81
-23.61
-27.93
-33.59
-40.97
-49.94
-59.77
-69.27
-76.88
-80.94
-80.03
-73.44
-61.42
-45.24
-26.86
-8.36
8.59
23.02
34.60
43.39
49.55
53.26
54.77
54.48
52.96
50.79
48.33
45.67
42.70
39.24
35.32
31.17
27.16
23.68
20.93
18.87
17.18
15.36
12.88
9.28
4.39
-1.68
-8.46
-15.36
-21.84
-27.62
-32.76
-37.60
-42.65
-48.42
-55.31
-63.38
-72.22
-80.77
-87.35
-90.01
-87.13
-78.07
-63.47
-45.21
-25.73
-7.32
8.56
21.49
31.79
40.07
46.70
51.69
54.82
55.96
55.30
53.38
50.89
48.42
46.21
44.13
41.87
39.16
36.00
32.60
29.34
26.47
23.94
21.39
18.24
13.87
7.95
0.55
-7.84
-16.40
-24.33
-31.07
-36.51
-41.01
-45.25
-50.00
-55.89
-63.29
-72.13
-81.78
-90.99
-97.99
-100.82
-97.91
-88.68
-73.73
-54.84
-34.31
-14.31
3.62
18.83
31.32
41.34
49.07
54.55
57.71
58.64
57.68
55.40
52.49
49.48
46.70
44.20
41.90
39.76
37.78
36.08
34.74
33.68
32.64
31.22
29.02
25.80
21.49
16.26
10.37
4.14
-2.17
-8.32
-14.16
-19.63
-24.75
-29.65
-34.66
-40.23
-46.83
-54.73
-63.64
-72.47
-79.46
-82.46
-79.73
-70.54
-55.54
-36.61
-16.28
3.08
19.89
33.57
44.32
52.66
58.97
63.29
65.41
65.17
62.76
58.89
54.60
50.96
48.60
47.51
47.09
46.50
45.10
42.75
39.81
36.77
34.01
31.43
28.56
24.79
19.72
13.42
6.40
-0.61
-6.95
-12.32
-16.85
-21.01
-25.45
-30.77
-37.39
-45.45
-54.75
-64.61
-73.79
-80.66
-83.43
-80.70
-71.94
-57.81
-40.00
-20.74
-2.13
14.34
28.01
38.82
46.99
52.75
56.19
57.45
56.81
54.78
52.03
49.15
46.48
44.01
41.55
38.85
35.86
32.75
29.89
27.70
26.42
25.95
25.86
25.45
24.05
21.20
16.87
11.43
5.48
-0.39
-5.84
-10.83
-15.59
-20.50
-25.93
-32.21
-39.57
-48.07
-57.44
-66.82
-74.78
-79.51
-79.33
-73.27
-61.51
-45.39
-27.00
-8.53
8.31
22.62
34.19
43.28
50.23
55.26
58.46
59.89
59.68
58.09
55.45
52.16
48.56
44.98
41.66
38.81
36.55
34.90
33.79
33.02
32.25
31.06
29.06
25.94
21.66
16.44
10.71
4.94
-0.56
-5.78
-10.96
-16.38
-22.20
-28.28
-34.28
-39.77
-44.57
-48.85
-53.07
-57.89
-63.89
-71.25
-79.61
-87.92
-94.58
-97.75
-95.85
-88.12
-74.89
-57.59
-38.36
-19.36
-2.26
12.13
23.76
33.01
40.29
45.83
49.63
51.59
51.75
50.37
47.88
44.84
41.70
38.73
36.03
33.65
31.63
30.01
28.80
27.89
26.99
25.67
23.51
20.24
15.89
10.78
5.43
0.35
-4.14
-8.03
-11.58
-15.12
-18.85
-22.68
-26.30
-29.28
-31.40
-32.77
-33.98
-35.92
-39.52
-45.44
-53.72
-63.58
-73.42
-81.12
-84.54
-82.24
-73.88
-60.42
-43.78
-26.26
-9.83
4.28
15.66
24.54
31.40
36.69
40.68
43.44
44.99
45.37
44.72
43.32
41.50
39.56
37.64
35.71
33.61
31.23
28.66
26.17
24.05
22.44
21.11
19.48
16.90
12.93
7.62
1.49
-4.64
-10.00
-14.14
-17.03
-19.00
-20.58
-22.37
-24.93
-28.69
-33.77
-39.80
-45.78
-50.21
-51.45
-48.23
-40.17
-27.89
-12.87
3.06
18.33
31.93
43.51
53.08
60.70
66.33
69.81
71.06
70.27
67.91
64.69
61.22
57.86
54.61
51.21
47.34
42.94
38.21
33.60
29.54
26.20
23.37
20.49
16.90
12.09
5.99
-1.11
-8.59
-15.85
-22.45
-28.29
-33.58
-38.75
-44.33
-50.81
-58.52
-67.40
-76.87
-85.71
-92.22
-94.65
-91.68
-82.92
-69.13
-51.99
-33.57
-15.81
0.02
13.36
24.25
32.97
39.77
44.74
47.81
49.00
48.43
46.52
43.78
40.76
37.80
34.96
32.06
28.89
25.37
21.65
18.07
14.96
12.42
10.24
7.93
4.91
0.80
-4.42
-10.37
-16.41
-21.87
-26.40
-30.03
-33.16
-36.47
-40.61
-46.10
-53.19
-61.72
-71.03
-79.88
-86.61
-89.43
-86.97
-78.76
-65.53
-49.01
-31.39
-14.63
0.06
12.30
22.32
30.50
37.02
41.75
44.44
44.99
43.58
40.79
37.35
33.91
30.87
28.31
26.13
24.19
22.40
20.77
19.30
17.95
16.54
14.85
12.59
9.52
5.43
0.25
-5.99
-13.09
-20.67
-28.28
-35.45
-41.92
-47.64
-52.84
-57.91
-63.38
-69.76
-77.45
-86.55
-96.63
-106.56
-114.60
-118.73
-117.27
-109.49
-95.89
-78.17
-58.55
-39.11
-21.20
-5.30
8.74
21.14
31.90
40.65
46.93
50.48
51.55
50.87
49.37
47.92
46.98
46.58
46.41
46.10
45.35
44.09
42.39
40.37
38.06
35.28
31.71
26.97
20.82
13.34
4.98
-3.57
-11.59
-18.62
-24.63
-29.97
-35.25
-41.00
-47.61
-55.12
-63.29
-71.46
-78.53
-83.01
-83.29
-78.06
-66.84
-50.30
-30.15
-8.66
12.02
30.47
46.13
59.16
69.90
78.52
84.86
88.64
89.71
88.33
85.15
80.99
76.55
72.13
67.76
63.34
58.91
54.72
51.14
48.43
46.49
44.82
42.68
39.39
34.52
28.11
20.55
12.49
4.58
-2.68
-9.11
-14.86
-20.36
-26.31
-33.43
-42.35
-53.28
-65.69
-78.21
-88.66
-94.60
-93.98
-85.95
-71.09
-51.35
-29.32
-7.47
12.47
29.71
44.22
56.30
66.19
73.93
79.36
82.28
82.63
80.62
76.79
71.85
66.61
61.75
57.71
54.62
52.39
50.86
49.83
49.15
48.61
47.93
46.76
44.68
41.40
36.82
31.08
24.54
17.62
10.70
3.95
-2.62
-9.10
-15.64
-22.33
-29.27
-36.63
-44.69
-53.82
-64.27
-75.79
-87.38
-97.21
-103.06
-102.93
-95.79
-82.02
-63.33
-42.18
-21.00
-1.53
15.44
29.87
42.00
52.00
59.76
65.05
67.78
68.12
66.56
63.73
60.19
56.30
52.28
48.26
44.50
41.36
39.22
38.22
38.13
38.30
37.83
35.88
31.98
26.22
19.16
11.60
4.24
-2.58
-8.92
-15.15
-21.64
-28.55
-35.73
-42.79
-49.28
-54.96
-59.91
-64.58
-69.66
-75.89
-83.76
-93.17
-103.28
-112.41
-118.37
-119.04
-113.04
-100.25
-81.88
-60.15
-37.55
-16.21
2.63
18.55
31.69
42.31
50.58
56.45
59.86
60.87
59.87
57.41
54.22
50.94
48.05
45.75
44.06
42.81
41.85
41.02
40.23
39.41
38.40
37.00
34.98
32.15
28.42
23.81
18.50
12.77
6.89
1.13
-4.35
-9.43
-14.11
-18.43
-22.54
-26.71
-31.40
-37.10
-44.17
-52.40
-60.78
-67.57
-70.60
-68.08
-59.21
-44.55
-25.79
-5.25
14.98
33.44
49.49
63.08
74.34
83.25
89.54
92.85
92.99
90.10
84.75
77.82
70.14
62.34
54.65
47.01
39.30
31.51
23.88
16.80
10.63
5.45
1.00
-3.32
-8.17
-14.08
-21.21
-29.23
-37.46
-45.06
-51.38
-56.14
-59.56
-62.21
-64.78
-67.89
-71.99
-77.27
-83.59
-90.38
-96.53
-100.51
-100.62
-95.52
-84.66
-68.49
-48.40
-26.31
-4.21
16.20
33.79
47.97
58.69
66.24
71.17
74.06
75.40
75.50
74.55
72.64
69.99
66.90
63.79
61.06
58.97
57.60
56.75
56.06
55.13
53.63
51.40
48.45
44.95
41.10
37.07
32.98
28.86
24.65
20.29
15.70
10.85
5.76
0.44
-5.11
-10.95
-17.20
-24.07
-31.80
-40.74
-51.19
-63.18
-76.12
-88.60
-98.49
-103.44
-101.67
-92.71
-77.63
-58.72
-38.71
-19.92
-3.68
9.62
20.23
28.52
34.68
38.66
40.42
40.04
37.86
34.42
30.23
25.69
21.00
16.23
11.50
7.05
3.27
0.56
-0.90
-1.23
-0.98
-0.91
-1.78
-4.03
-7.65
-12.11
-16.57
-20.22
-22.58
-23.68
-24.08
-24.53
-25.68
-27.77
-30.57
-33.50
-36.03
-37.93
-39.39
-41.04
-43.65
-47.90
-54.01
-61.56
-69.38
-75.66
-78.39
-75.87
-67.23
-52.73
-33.67
-11.98
10.31
31.55
50.61
66.83
79.78
89.11
94.54
95.99
93.73
88.41
80.92
72.25
63.18
54.35
46.15
38.92
32.91
28.25
24.76
21.96
19.07
15.32
10.16
3.48
-4.45
-13.12
-22.02
-30.86
-39.56
-48.17
-56.77
-65.32
-73.66
-81.49
-88.46
-94.28
-98.80
-102.15
-104.76
-107.31
-110.50
-114.66
-119.38
-123.32
-124.42
-120.55
-110.24
-93.33
-71.08
-45.78
-19.98
4.22
25.60
43.72
58.66
70.62
79.73
86.04
89.73
91.15
90.85
89.44
87.46
85.29
83.12
81.02
79.06
77.28
75.66
74.07
72.23
69.78
66.29
61.45
55.08
47.18
37.92
27.61
16.57
5.10
-6.53
-18.14
-29.55
-40.56
-50.96
-60.54
-69.22
-77.22
-85.08
-93.58
-103.32
-114.25
-125.27
-134.27
-138.64
-136.12
-125.73
-108.15
-85.59
-60.95
-36.90
-15.14
3.72
19.85
33.65
45.31
54.74
61.70
66.11
68.17
68.32
67.09
64.92
62.10
58.79
55.21
51.64
48.46
45.99
44.33
43.29
42.40
41.09
38.91
35.70
31.61
26.97
22.12
17.24
12.23
6.82
0.72
-6.22
-13.80
-21.60
-29.05
-35.75
-41.67
-47.30
-53.43
-60.89
-70.06
-80.47
-90.72
-98.71
-102.22
-99.60
-90.30
-75.03
-55.54
-34.00
-12.44
7.68
25.58
40.93
53.66
63.66
70.88
75.39
77.56
78.00
77.41
76.29
74.74
72.55
69.42
65.32
60.65
56.10
52.35
49.64
47.62
45.52
42.53
38.26
32.86
26.90
21.00
15.47
10.17
4.66
-1.50
-8.41
-15.80
-23.10
-29.75
-35.52
-40.52
-45.22
-50.21
-56.09
-63.28
-71.92
-81.69
-91.64
-100.15
-105.13
-104.58
-97.26
-83.19
-63.80
-41.50
-18.95
1.74
19.40
33.82
45.40
54.64
61.86
67.12
70.37
71.66
71.26
69.65
67.43
65.14
63.25
62.03
61.62
61.97
62.89
64.03
64.99
65.35
64.87
63.42
61.07
57.96
54.25
50.10
45.62
40.98
36.28
31.57
26.72
21.43
15.29
7.91
-0.93
-11.32
-23.19
-36.38
-50.52
-64.76
-77.66
-87.22
-91.38
-88.70
-78.98
-63.47
-44.50
-24.74
-6.37
9.42
22.33
32.65
40.73
46.71
50.54
52.10
51.48
49.01
45.22
40.72
36.06
31.64
27.71
24.33
21.40
18.69
15.89
12.66
8.75
4.03
-1.46
-7.46
-13.63
-19.56
-24.87
-29.39
-33.09
-36.15
-38.83
-41.39
-44.03
-46.89
-50.10
-53.80
-58.28
-63.89
-71.01
-79.74
-89.70
-99.73
-107.99
-112.33
-110.92
-102.92
-88.78
-70.13
-49.18
-28.09
-8.41
9.06
24.07
36.64
46.82
54.66
60.25
63.90
66.00
67.04
67.36
67.17
66.51
65.44
64.09
62.74
61.72
61.21
61.14
61.09
60.46
58.69
55.54
51.16
46.01
40.56
35.10
29.56
23.65
17.03
9.56
1.38
-7.10
-15.43
-23.27
-30.49
-37.25
-43.89
-50.91
-58.81
-67.97
-78.35
-89.29
-99.38
-106.61
-108.91
-104.79
-93.92
-77.34
-57.12
-35.75
-15.40
2.58
17.75
30.24
40.42
48.50
54.55
58.57
60.62
60.91
59.78
57.61
54.72
51.40
47.91
44.50
41.41
38.78
36.62
34.80
33.02
30.88
28.03
24.15
19.15
13.17
6.57
-0.18
-6.69
-12.85
-18.85
-25.02
-31.55
-38.29
-44.67
-49.99
-53.78
-56.12
-57.76
-59.82
-63.41
-69.12
-76.76
-85.31
-93.10
-98.24
-99.06
-94.50
-84.44
-69.64
-51.65
-32.38
-13.68
3.00
16.82
27.59
35.60
41.35
45.31
47.81
48.91
48.59
46.86
43.94
40.28
36.52
33.39
31.51
31.28
32.84
36.00
40.30
45.06
49.57
53.20
55.54
56.42
55.83
53.79
50.29
45.33
39.03
31.71
23.87
16.00
8.40
1.06
-6.40
-14.55
-23.95
-34.84
-46.89
-59.08
-69.74
-76.87
-78.71
-74.28
-63.77
-48.53
-30.61
-12.17
5.11
20.29
33.06
43.46
51.57
57.41
61.04
62.68
62.74
61.72
60.03
57.87
55.23
52.05
48.44
44.74
41.45
39.00
37.52
36.68
35.87
34.41
31.84
28.14
23.67
19.00
14.63
10.79
7.33
3.88
0.05
-4.42
-9.49
-14.93
-20.46
-25.90
-31.27
-36.78
-42.75
-49.50
-57.24
-65.89
-74.92
-83.23
-89.26
-91.36
-88.28
-79.70
-66.36
-49.92
-32.34
-15.37
-0.07
13.17
24.44
33.98
41.93
48.30
53.04
56.15
57.72
57.93
57.02
55.26
52.89
50.21
47.45
44.87
42.65
40.88
39.57
38.64
37.90
37.09
35.93
34.14
31.57
28.20
24.20
19.86
15.56
11.59
8.10
5.02
2.13
-0.88
-4.27
-8.19
-12.65
-17.52
-22.64
-27.80
-32.85
-37.72
-42.50
-47.44
-52.99
-59.59
-67.40
-75.95
-84.06
-89.92
-91.68
-88.05
-78.89
-65.24
-49.03
-32.33
-16.74
-3.02
8.81
19.06
27.97
35.48
41.33
45.33
47.59
48.51
48.70
48.67
48.66
48.59
48.19
47.22
45.64
43.66
41.68
40.11
39.18
38.75
38.38
37.43
35.31
31.73
26.86
21.27
15.64
10.51
6.01
1.84
-2.46
-7.36
-12.97
-19.11
-25.32
-31.11
-36.08
-40.07
-43.20
-45.87
-48.72
-52.48
-57.74
-64.56
-72.32
-79.64
-84.83
-86.30
-83.19
-75.52
-64.03
-49.85
-34.05
-17.50
-0.93
14.91
29.17
40.98
49.72
55.17
57.58
57.47
55.41
51.82
47.02
41.37
35.36
29.59
24.70
21.13
18.96
17.95
17.65
17.54
17.20
16.47
15.38
14.09
12.80
11.58
10.34
8.88
6.96
4.44
1.41
-1.91
-5.19
-8.22
-11.02
-13.88
-17.34
-21.88
-27.75
-34.67
-41.77
-47.70
-50.95
-50.35
-45.41
-36.62
-25.24
-12.95
-1.32
8.56
16.32
22.10
26.27
29.17
30.96
31.67
31.35
30.19
28.50
26.51
24.38
22.07
19.53
16.76
14.01
11.64
10.02
9.29
9.28
9.56
9.53
8.73
6.87
4.01
0.45
-3.38
-7.11
-10.54
-13.74
-17.00
-20.64
-24.83
-29.39
-33.85
-37.61
-40.30
-41.96
-43.15
-44.77
-47.65
-52.25
-58.33
-64.93
-70.56
-73.59
-72.72
-67.37
-57.81
-45.16
-30.97
-16.77
-3.67
7.81
17.61
25.91
32.79
38.20
41.95
43.94
44.27
43.33
41.63
39.69
37.88
36.31
34.94
33.66
32.38
31.14
30.01
29.01
28.00
26.64
24.43
20.95
16.01
9.73
2.55
-4.94
-12.13
-18.63
-24.29
-29.14
-33.31
-36.91
-39.94
-42.33
-44.02
-45.02
-45.49
-45.66
-45.91
-46.58
-48.06
-50.68
-54.60
-59.65
-65.16
-69.92
-72.37
-71.07
-65.14
-54.68
-40.75
-25.06
-9.43
4.72
16.63
26.17
33.60
39.32
43.63
46.69
48.60
49.45
49.40
48.65
47.43
45.90
44.16
42.20
40.01
37.63
35.19
32.91
31.03
29.63
28.63
27.68
26.31
24.16
21.11
17.38
13.41
9.67
6.42
3.58
0.77
-2.44
-6.35
-10.94
-15.83
-20.49
-24.42
-27.46
-29.82
-32.07
-34.95
-39.15
-44.91
-51.85
-58.86
-64.30
-66.44
-64.05
-56.83
-45.55
-31.80
-17.42
-3.90
7.91
17.89
26.31
33.41
39.15
43.21
45.14
44.76
42.34
38.64
34.70
31.45
29.39
28.46
28.14
27.80
26.99
25.65
24.06
22.60
21.47
20.55
19.41
17.55
14.65
10.72
6.14
1.41
-3.01
-6.97
-10.58
-14.16
-17.98
-22.15
-26.58
-31.08
-35.59
-40.32
-45.69
-52.08
-59.44
-66.91
-72.89
-75.43
-72.90
-64.80
-52.04
-36.68
-21.17
-7.48
3.46
11.82
18.36
23.81
28.46
32.11
34.35
34.95
34.03
32.09
29.75
27.59
25.94
24.89
24.34
24.05
23.78
23.30
22.50
21.39
20.06
18.51
16.66
14.30
11.20
7.25
2.54
-2.61
-7.81
-12.75
-17.30
-21.53
-25.63
-29.79
-34.15
-38.85
-44.02
-49.85
-56.43
-63.63
-70.87
-77.08
-80.83
-80.69
-75.71
-65.80
-51.82
-35.42
-18.53
-2.83
10.61
21.51
30.14
37.08
42.80
47.52
51.23
53.75
54.96
54.91
53.86
52.16
50.18
48.30
46.76
45.80
45.50
45.83
46.56
47.33
47.74
47.46
46.29
44.18
41.14
37.29
32.84
28.11
23.51
19.40
15.88
12.65
9.06
4.26
-2.48
-11.53
-22.85
-36.05
-50.62
-65.96
-81.42
-96.08
-108.75
-117.98
-122.39
-121.08
-113.98
-101.93
-86.48
-69.40
-52.23
-35.97
-21.03
-7.48
4.74
15.52
24.65
31.90
37.16
40.53
42.31
42.90
42.75
42.20
41.57
41.09
40.94
41.18
41.82
42.72
43.63
44.23
44.17
43.15
41.00
37.76
33.66
29.03
24.24
19.47
14.70
9.75
4.44
-1.36
-7.50
-13.69
-19.51
-24.67
-29.04
-32.81
-36.43
-40.58
-45.92
-52.84
-61.12
-69.73
-76.90
-80.58
-79.09
-71.79
-59.37
-43.57
-26.56
-10.15
4.69
17.82
29.58
40.16
49.37
56.68
61.57
63.93
64.21
63.18
61.58
59.80
57.83
55.46
52.63
49.63
47.07
45.48
45.03
45.35
45.69
45.23
43.49
40.48
36.58
32.33
28.18
24.31
20.68
17.08
13.24
8.93
4.02
-1.46
-7.31
-13.28
-19.17
-25.08
-31.41
-38.80
-47.72
-58.11
-69.07
-78.88
-85.42
-86.82
-82.08
-71.45
-56.33
-38.79
-20.91
-4.25
10.44
23.04
33.82
43.01
50.64
56.51
60.44
62.38
62.61
61.58
59.84
57.82
55.75
53.69
51.65
49.73
48.13
47.07
46.60
46.43
45.94
44.35
41.10
36.12
29.91
23.37
17.45
12.69
9.03
5.82
2.22
-2.41
-8.21
-14.71
-21.10
-26.59
-30.82
-34.01
-36.93
-40.57
-45.83
-53.10
-62.05
-71.67
-80.39
-86.45
-88.29
-84.93
-76.30
-63.17
-47.07
-29.78
-12.96
2.22
15.17
25.85
34.50
41.43
46.89
51.03
53.92
55.63
56.24
55.85
54.61
52.70
50.41
48.14
46.27
45.15
44.86
45.20
45.73
45.92
45.35
43.81
41.29
37.92
33.82
29.12
23.97
18.63
13.45
8.76
4.77
1.43
-1.61
-4.79
-8.48
-12.81
-17.62
-22.61
-27.45
-32.02
-36.37
-40.67
-45.17
-50.12
-55.79
-62.42
-70.11
-78.57
-86.93
-93.75
-97.29
-96.09
-89.48
-77.88
-62.67
-45.78
-29.00
-13.60
-0.14
11.37
21.21
29.62
36.70
42.40
46.64
49.47
51.04
51.59
51.38
50.64
49.50
48.04
46.35
44.55
42.82
41.34
40.19
39.27
38.33
36.97
34.86
31.80
27.86
23.37
18.85
14.76
11.42
8.83
6.74
4.68
2.23
-0.89
-4.71
-9.01
-13.36
-17.29
-20.48
-22.86
-24.75
-26.73
-29.51
-33.66
-39.39
-46.40
-53.77
-60.09
-63.82
-63.65
-58.91
-49.89
-37.68
-23.88
-10.08
2.60
13.68
23.17
31.25
37.96
43.12
46.44
47.83
47.50
46.03
44.11
42.30
40.84
39.69
38.64
37.56
36.53
35.74
35.38
35.45
35.64
35.47
34.46
32.34
29.18
25.32
21.27
17.47
14.09
11.03
7.89
4.26
-0.12
-5.16
-10.42
-15.20
-18.90
-21.25
-22.57
-23.76
-25.95
-30.11
-36.48
-44.30
-51.89
-57.13
-58.15
-54.03
-45.09
-32.72
-18.90
-5.57
5.85
14.67
20.80
24.57
26.48
27.03
26.68
25.78
24.56
23.13
21.52
19.72
17.77
15.79
14.02
12.76
12.31
12.88
14.51
17.06
20.20
23.48
26.45
28.68
29.88
29.88
28.71
26.60
23.91
21.06
18.32
15.68
12.78
9.07
4.03
-2.48
-10.16
-18.24
-25.81
-32.22
-37.29
-41.40
-45.31
-49.84
-55.53
-62.47
-70.20
-77.79
-83.94
-87.31
-86.81
-81.92
-72.96
-61.01
-47.68
-34.58
-22.95
-13.31
-5.59
0.62
5.77
10.08
13.56
16.08
17.64
18.38
18.58
18.62
18.78
19.29
20.31
21.92
24.12
26.80
29.65
32.19
33.95
34.51
33.68
31.50
28.17
23.98
19.23
14.23
9.26
4.55
0.18
-3.88
-7.80
-11.73
-15.67
-19.40
-22.58
-24.93
-26.45
-27.49
-28.71
-30.83
-34.43
-39.66
-46.07
-52.59
-57.70
-59.84
-57.90
-51.57
-41.55
-29.28
-16.59
-5.06
4.25
11.03
15.53
18.26
19.72
20.25
19.94
18.81
16.87
14.24
11.25
8.31
5.83
4.09
3.20
3.00
3.29
3.82
4.45
5.06
5.55
5.79
5.56
4.65
2.91
0.38
-2.82
-6.44
-10.21
-13.88
-17.19
-19.92
-21.90
-23.02
-23.39
-23.27
-23.13
-23.55
-25.04
-27.81
-31.55
-35.36
-37.87
-37.65
-33.74
-26.12
-15.78
-4.41
6.24
14.97
21.42
25.99
29.39
32.17
34.44
35.94
36.28
35.18
32.69
29.12
24.94
20.59
16.34
12.31
8.47
4.82
1.39
-1.68
-4.25
-6.21
-7.63
-8.71
-9.74
-11.02
-12.73
-14.87
-17.33
-19.89
-22.36
-24.64
-26.74
-28.76
-30.89
-33.29
-36.16
-39.71
-44.21
-49.89
-56.66
-63.94
-70.49
-74.63
-74.70
-69.70
-59.66
-45.73
-29.70
-13.46
1.54
14.50
25.17
33.58
39.78
43.82
45.86
46.23
45.44
44.01
42.34
40.58
38.69
36.61
34.44
32.49
31.23
31.07
32.16
34.28
36.82
39.02
40.19
39.99
38.49
36.07
33.26
30.48
27.94
25.54
23.05
20.18
16.64
12.26
6.90
0.54
-6.79
-14.98
-23.85
-33.22
-42.92
-52.92
-63.29
-74.11
-85.16
-95.70
-104.37
-109.39
-109.06
-102.42
-89.68
-72.26
-52.41
-32.46
-14.19
1.54
14.71
25.75
35.12
43.00
49.35
54.03
57.06
58.72
59.45
59.65
59.46
58.67
56.89
53.82
49.46
44.20
38.73
33.63
29.17
25.21
21.30
16.90
11.75
5.92
-0.14
-5.78
-10.32
-13.34
-14.80
-15.04
-14.72
-14.54
-15.00
-16.28
-18.17
-20.26
-22.21
-23.86
-25.40
-27.24
-29.91
-33.83
-39.24
-45.97
-53.35
-60.19
-64.89
-65.82
-61.83
-52.63
-39.04
-22.71
-5.70
10.16
23.67
34.38
42.38
48.00
51.48
52.98
52.62
50.66
47.61
44.10
40.73
37.94
35.93
34.78
34.51
35.15
36.72
39.08
41.87
44.50
46.40
47.13
46.62
45.11
42.98
40.50
37.70
34.31
29.90
24.16
17.02
8.86
0.30
-7.96
-15.36
-21.69
-27.17
-32.32
-37.80
-44.29
-52.16
-61.33
-71.07
-80.01
-86.36
-88.34
-84.77
-75.41
-61.13
-43.63
-24.98
-7.07
8.78
21.95
32.41
40.53
46.83
51.76
55.62
58.53
60.46
61.30
61.06
59.85
58.02
56.03
54.33
53.24
52.83
52.87
52.92
52.48
51.10
48.56
44.81
39.97
34.27
27.95
21.34
14.75
8.49
2.73
-2.56
-7.60
-12.68
-17.99
-23.52
-29.01
-34.17
-38.79
-42.92
-46.96
-51.46
-56.91
-63.39
-70.32
-76.41
-79.99
-79.45
-73.83
-63.20
-48.65
-31.94
-14.93
0.96
14.99
27.00
37.18
45.78
52.93
58.63
62.86
65.61
66.99
67.23
66.62
65.51
64.23
62.96
61.78
60.65
59.52
58.44
57.51
56.77
56.08
54.93
52.66
48.56
42.31
34.03
24.30
13.92
3.61
-6.18
-15.38
-24.12
-32.69
-41.30
-50.03
-58.85
-67.56
-75.91
-83.71
-90.84
-97.37
-103.53
-109.56
-115.76
-122.25
-128.90
-135.15
-139.95
-141.89
-139.45
-131.57
-117.98
-99.50
-77.81
-55.03
-33.11
-13.38
3.56
17.75
29.51
39.19
46.99
53.00
57.36
60.26
62.00
62.89
63.15
62.84
62.02
60.75
59.27
57.92
57.05
56.84
57.18
57.64
57.61
56.54
54.14
50.47
45.97
41.29
37.04
33.54
30.73
28.14
25.18
21.32
16.36
10.49
4.14
-2.20
-8.26
-14.05
-19.88
-26.21
-33.46
-41.87
-51.42
-61.68
-71.77
-80.32
-85.69
-86.30
-81.16
-70.28
-54.77
-36.63
-18.10
-1.07
13.40
25.13
34.51
42.07
48.09
52.48
54.92
55.17
53.24
49.59
44.97
40.20
35.92
32.47
29.86
27.93
26.50
25.42
24.60
23.88
23.05
21.86
20.07
17.56
14.31
10.39
5.93
1.17
-3.58
-7.90
-11.43
-13.90
-15.39
-16.24
-16.99
-18.22
-20.43
-23.95
-28.91
-35.14
-41.99
-48.31
-52.52
-52.98
-48.55
-39.08
-25.55
-9.85
5.89
19.87
31.18
39.77
46.15
50.97
54.55
56.87
57.67
56.69
53.92
49.60
44.21
38.31
32.38
26.86
22.10
18.42
15.99
14.81
14.62
14.94
15.25
15.12
14.33
12.91
10.98
8.69
6.12
3.28
0.14
-3.29
-6.95
-10.72
-14.48
-18.12
-21.55
-24.77
-27.86
-31.01
-34.58
-38.99
-44.57
-51.29
-58.47
-64.84
-68.62
-68.13
-62.41
-51.65
-37.24
-21.32
-6.09
6.92
17.17
24.99
31.09
36.10
40.15
43.02
44.41
44.22
42.76
40.53
38.04
35.54
33.03
30.44
27.80
25.40
23.68
22.94
23.15
23.84
24.23
23.57
21.41
17.81
13.30
8.68
4.66
1.66
-0.44
-2.18
-4.25
-7.25
-11.36
-16.28
-21.39
-26.06
-29.93
-33.09
-36.05
-39.54
-44.27
-50.71
-58.86
-68.16
-77.46
-85.16
-89.57
-89.32
-83.82
-73.52
-59.78
-44.45
-29.31
-15.63
-4.00
5.59
13.41
19.79
24.87
28.66
31.03
31.91
31.32
29.46
26.76
23.73
20.95
18.89
17.81
17.67
18.23
19.05
19.71
19.81
19.14
17.63
15.37
12.61
9.66
6.84
4.35
2.22
0.32
-1.57
-3.62
-5.88
-8.26
-10.62
-12.78
-14.73
-16.63
-18.88
-21.93
-26.14
-31.41
-37.05
-41.75
-43.91
-42.13
-35.75
-25.13
-11.54
3.24
17.49
30.02
40.34
48.46
54.73
59.44
62.70
64.44
64.55
62.98
59.91
55.71
50.88
45.86
41.00
36.43
32.15
28.11
24.25
20.56
17.07
13.76
10.55
7.28
3.74
-0.21
-4.61
-9.30
-13.99
-18.32
-22.04
-25.04
-27.41
-29.43
-31.38
-33.59
-36.31
-39.81
-44.34
-49.92
-56.18
-62.16
-66.44
-67.43
-63.96
-55.72
-43.50
-28.91
-13.89
-0.14
11.38
20.43
27.35
32.67
36.78
39.84
41.83
42.65
42.27
40.83
38.55
35.75
32.71
29.70
26.95
24.63
22.91
21.82
21.28
21.00
20.60
19.64
17.81
14.98
11.23
6.84
2.12
-2.62
-7.27
-11.81
-16.33
-20.91
-25.50
-29.98
-34.14
-37.92
-41.38
-44.88
-48.91
-53.93
-60.14
-67.20
-74.13
-79.48
-81.63
-79.33
-72.12
-60.58
-46.13
-30.60
-15.76
-2.75
7.96
16.54
23.46
29.11
33.71
37.24
39.58
40.66
40.56
39.50
37.77
35.66
33.35
30.99
28.76
26.85
25.50
24.79
24.54
24.35
23.68
22.11
19.46
15.92
11.86
7.69
3.71
0.00
-3.50
-6.98
-10.64
-14.65
-19.07
-23.82
-28.64
-33.16
-37.02
-40.10
-42.67
-45.41
-49.13
-54.40
-61.15
-68.42
-74.50
-77.40
-75.51
-68.20
-56.13
-40.94
-24.77
-9.54
3.59
14.33
22.97
30.04
35.88
40.55
43.93
45.89
46.44
45.83
44.38
42.44
40.29
38.11
36.08
34.37
33.13
32.47
32.33
32.48
32.57
32.17
30.96
28.81
25.83
22.32
18.66
15.15
11.87
8.71
5.41
1.73
-2.33
-6.60
-10.75
-14.45
-17.58
-20.30
-23.08
-26.54
-31.34
-37.72
-45.37
-53.20
-59.52
-62.51
-60.78
-53.98
-42.88
-29.13
-14.70
-1.19
10.48
20.11
27.90
34.15
39.07
42.71
45.06
46.17
46.14
45.09
43.20
40.64
37.68
34.70
32.07
30.13
28.97
28.48
28.32
28.06
27.34
25.97
23.94
21.36
18.37
15.00
11.25
7.03
2.34
-2.71
-7.92
-13.02
-17.78
-22.17
-26.26
-30.25
-34.33
-38.69
-43.53
-49.08
-55.55
-62.80
-70.14
-76.22
-79.29
-77.77
-70.96
-59.41
-44.80
-29.35
-15.00
-2.92
6.71
14.31
20.52
25.74
30.06
33.41
35.68
36.91
37.23
36.84
35.89
34.50
32.79
30.93
29.13
27.60
26.54
26.03
26.02
26.28
26.41
25.96
24.57
22.09
18.72
14.89
11.18
7.99
5.41
3.13
0.67
-2.48
-6.49
-11.21
-16.20
-20.96
-25.17
-28.83
-32.30
-36.21
-41.23
-47.76
-55.73
-64.38
-72.32
-77.80
-79.24
-75.72
-67.31
-55.04
-40.54
-25.58
-11.55
0.75
11.08
19.56
26.43
31.90
36.13
39.19
41.15
42.07
42.04
41.22
39.85
38.25
36.76
35.67
35.14
35.21
35.78
36.71
37.82
38.90
39.70
39.91
39.22
37.44
34.65
31.21
27.66
24.56
22.14
20.26
18.39
15.90
12.35
7.74
2.48
-2.73
-7.24
-10.73
-13.35
-15.73
-18.71
-23.11
-29.37
-37.34
-46.09
-54.06
-59.40
-60.51
-56.53
-47.69
-35.17
-20.73
-6.09
7.50
19.45
29.67
38.27
45.28
50.54
53.83
55.07
54.46
52.50
49.80
46.97
44.39
42.23
40.44
38.86
37.37
35.94
34.64
33.54
32.58
31.55
30.11
27.89
24.66
20.44
15.48
10.17
4.88
-0.19
-4.98
-9.54
-13.87
-17.97
-21.76
-25.24
-28.55
-32.04
-36.16
-41.32
-47.59
-54.52
-61.03
-65.54
-66.45
-62.62
-53.86
-41.08
-26.06
-10.86
2.72
13.67
21.83
27.71
31.99
35.22
37.57
38.93
39.05
37.91
35.75
33.07
30.47
28.37
26.91
25.88
24.95
23.87
22.58
21.22
19.99
18.98
18.05
16.86
15.02
12.20
8.29
3.44
-2.00
-7.60
-12.94
-17.80
-22.14
-26.14
-30.07
-34.19
-38.65
-43.56
-49.06
-55.22
-61.89
-68.51
-73.95
-76.71
-75.39
-69.27
-58.60
-44.68
-29.38
-14.56
-1.57
9.01
17.27
23.65
28.64
32.55
35.45
37.26
37.92
37.43
35.99
33.91
31.55
29.21
27.07
25.24
23.71
22.46
21.41
20.49
19.56
18.44
16.96
14.99
12.46
9.32
5.61
1.34
-3.41
-8.47
-13.59
-18.50
-22.99
-26.97
-30.60
-34.20
-38.20
-43.01
-48.91
-55.97
-63.91
-71.96
-78.85
-83.04
-83.08
-78.13
-68.33
-54.86
-39.52
-24.23
-10.47
1.00
10.08
17.11
22.55
26.78
30.06
32.49
34.10
34.86
34.70
33.71
32.09
30.18
28.38
26.98
26.10
25.65
25.41
25.11
24.58
23.70
22.41
20.71
18.53
15.83
12.53
8.61
4.11
-0.78
-5.75
-10.41
-14.40
-17.49
-19.80
-21.70
-23.81
-26.80
-31.20
-37.17
-44.41
-52.00
-58.56
-62.51
-62.48
-57.80
-48.73
-36.44
-22.63
-9.01
3.14
13.21
21.20
27.44
32.20
35.61
37.58
38.05
37.13
35.21
32.89
30.72
29.02
27.77
26.69
25.45
23.93
22.26
20.77
19.78
19.36
19.22
18.82
17.54
14.96
10.99
5.90
0.21
-5.52
-10.81
-15.36
-19.12
-22.32
-25.43
-29.14
-34.17
-40.95
-49.33
-58.27
-66.02
-70.54
-70.18
-64.31
-53.56
-39.58
-24.44
-9.92
2.93
13.83
23.03
30.84
37.32
42.30
45.52
46.87
46.56
45.08
43.00
40.80
38.72
36.79
34.86
32.83
30.67
28.49
26.49
24.83
23.47
22.12
20.30
17.49
13.33
7.80
1.25
-5.73
-12.53
-18.70
-24.10
-28.89
-33.47
-38.29
-43.77
-50.16
-57.48
-65.37
-73.09
-79.51
-83.29
-83.17
-78.32
-68.63
-54.77
-38.11
-20.33
-3.06
12.52
25.78
36.65
45.40
52.38
57.85
61.92
64.55
65.71
65.42
63.85
61.26
58.01
54.48
51.07
48.17
46.08
44.91
44.45
44.23
43.65
42.14
39.45
35.65
31.11
26.25
21.38
16.57
11.63
6.36
0.66
-5.32
-11.23
-16.69
-21.49
-25.70
-29.73
-34.14
-39.47
-46.07
-53.93
-62.62
-71.26
-78.57
-83.12
-83.57
-79.13
-69.77
-56.38
-40.53
-24.08
-8.59
4.92
16.14
25.26
32.66
38.66
43.32
46.55
48.25
48.44
47.33
45.29
42.76
40.12
37.67
35.61
34.08
33.12
32.67
32.54
32.46
32.06
31.01
29.12
26.31
22.68
18.44
13.87
9.33
5.18
1.65
-1.24
-3.70
-6.15
-9.06
-12.75
-17.23
-22.20
-27.24
-31.97
-36.21
-40.05
-43.72
-47.56
-51.96
-57.33
-63.99
-71.92
-80.47
-88.27
-93.43
-94.14
-89.42
-79.58
-66.17
-51.47
-37.59
-25.84
-16.47
-8.99
-2.69
2.90
7.74
11.55
14.04
15.32
15.87
16.47
17.84
20.36
24.02
28.51
33.44
38.54
43.75
49.03
54.20
58.80
62.17
63.65
62.87
59.93
55.34
49.94
44.48
39.49
35.05
30.84
26.37
21.26
15.50
9.47
3.79
-0.98
-4.66
-7.62
-10.69
-14.88
-20.95
-28.96
-38.15
-46.92
-53.31
-55.55
-52.63
-44.67
-32.84
-18.91
-4.66
8.65
20.51
30.94
40.14
48.15
54.69
59.32
61.75
62.05
60.71
58.40
55.76
53.17
50.71
48.33
45.98
43.75
41.87
40.50
39.67
39.08
38.23
36.58
33.75
29.67
24.58
18.92
13.14
7.56
2.27
-2.80
-7.77
-12.72
-17.68
-22.64
-27.70
-33.17
-39.47
-46.97
-55.59
-64.57
-72.42
-77.29
-77.61
-72.63
-62.81
-49.63
-35.05
-20.90
-8.32
2.32
11.23
18.82
25.35
30.87
35.23
38.24
39.87
40.25
39.69
38.56
37.16
35.69
34.29
33.01
31.92
31.04
30.36
29.72
28.93
27.75
25.98
23.50
20.31
16.47
12.10
7.41
2.65
-1.95
-6.22
-10.16
-13.89
-17.59
-21.37
-25.24
-29.14
-33.09
-37.34
-42.36
-48.52
-55.74
-63.11
-68.98
-71.41
-68.96
-61.34
-49.58
-35.65
-21.71
-9.29
1.01
9.40
16.42
22.46
27.55
31.47
34.00
35.11
35.05
34.15
32.71
30.87
28.67
26.14
23.42
20.76
18.52
17.00
16.31
16.22
16.23
15.67
13.96
10.85
6.53
1.58
-3.27
-7.39
-10.56
-13.01
-15.32
-18.13
-21.85
-26.45
-31.50
-36.28
-40.16
-42.85
-44.54
-45.87
-47.72
-50.89
-55.76
-62.04
-68.74
-74.24
-76.82
-75.11
-68.58
-57.71
-43.83
-28.64
-13.76
-0.32
11.11
20.40
27.65
33.12
37.16
40.18
42.56
44.56
46.17
47.12
47.06
45.76
43.32
40.12
36.73
33.67
31.26
29.55
28.35
27.34
26.14
24.42
21.96
18.72
14.86
10.71
6.64
2.94
-0.35
-3.44
-6.67
-10.33
-14.49
-18.93
-23.22
-26.95
-29.87
-32.07
-34.01
-36.35
-39.81
-44.82
-51.20
-58.10
-63.99
-67.12
-66.05
-60.16
-49.96
-36.92
-23.01
-9.98
1.06
9.85
16.73
22.23
26.69
30.15
32.39
33.19
32.53
30.68
28.14
25.46
23.11
21.38
20.33
19.82
19.64
19.55
19.44
19.27
19.10
18.95
18.76
18.30
17.29
15.49
12.84
9.54
5.94
2.41
-0.82
-3.83
-6.93
-10.57
-15.11
-20.75
-27.48
-35.19
-43.69
-52.63
-61.38
-68.86
-73.68
-74.46
-70.31
-61.25
-48.27
-33.07
-17.52
-3.16
9.14
19.21
27.35
33.97
39.36
43.54
46.35
47.63
47.45
46.09
44.12
42.10
40.45
39.34
38.62
38.04
37.28
36.14
34.51
32.40
29.89
27.08
23.98
20.51
16.46
11.62
5.95
-0.35
-6.80
-12.86
-18.12
-22.54
-26.44
-30.31
-34.64
-39.72
-45.59
-52.13
-59.10
-66.12
-72.52
-77.26
-79.03
-76.61
-69.29
-57.27
-41.65
-24.24
-6.98
8.51
21.37
31.49
39.31
45.47
50.47
54.57
57.73
59.82
60.72
60.48
59.34
57.64
55.75
53.95
52.40
51.12
50.06
49.05
47.88
46.27
43.91
40.47
35.70
29.45
21.74
12.77
2.91
-7.37
-17.53
-27.11
-35.75
-43.22
-49.45
-54.49
-58.41
-61.37
-63.68
-65.79
-68.39
-72.16
-77.49
-84.04
-90.55
-95.06
-95.53
-90.61
-80.24
-65.77
-49.42
-33.47
-19.50
-8.01
1.35
9.29
16.33
22.51
27.52
30.99
32.84
33.36
33.08
32.53
32.01
31.55
31.04
30.41
29.72
29.07
28.53
28.01
27.28
26.10
24.31
21.95
19.18
16.17
13.00
9.64
6.02
2.10
-2.08
-6.43
-10.86
-15.32
-19.78
-24.22
-28.68
-33.31
-38.40
-44.38
-51.50
-59.54
-67.51
-73.71
-76.16
-73.34
-64.78
-51.36
-35.00
-17.94
-2.00
11.84
23.45
33.17
41.34
48.06
53.12
56.30
57.54
57.15
55.71
53.86
52.07
50.52
49.03
47.31
45.14
42.56
39.86
37.44
35.54
34.03
32.31
29.61
25.28
19.14
11.64
3.73
-3.59
-9.61
-14.23
-17.93
-21.56
-26.01
-31.89
-39.34
-47.91
-56.56
-63.79
-67.94
-67.68
-62.40
-52.43
-39.02
-23.82
-8.43
6.07
19.19
30.76
40.70
48.71
54.41
57.55
58.28
57.18
55.11
52.85
50.88
49.21
47.59
45.73
43.52
41.10
38.71
36.50
34.48
32.46
30.18
27.41
23.98
19.82
14.90
9.30
3.21
-3.02
-8.97
-14.31
-18.96
-23.14
-27.33
-32.11
-37.99
-45.20
-53.60
-62.49
-70.63
-76.34
-77.94
-74.24
-65.04
-51.29
-34.85
-17.91
-2.30
10.95
21.69
30.37
37.56
43.60
48.52
52.04
53.88
53.99
52.56
50.10
47.17
44.26
41.63
39.30
37.13
35.01
32.87
30.79
28.81
26.92
24.89
22.38
19.07
14.84
9.81
4.36
-1.10
-6.24
-11.01
-15.51
-19.94
-24.42
-28.89
-33.24
-37.35
-41.32
-45.46
-50.21
-55.90
-62.35
-68.69
-73.41
-74.67
-71.03
-61.91
-47.97
-30.86
-12.71
4.53
19.57
31.95
41.74
49.30
54.92
58.80
61.02
61.69
61.00
59.22
56.68
53.73
50.70
47.92
45.57
43.70
42.24
40.99
39.77
38.38
36.66
34.43
31.44
27.49
22.50
16.63
10.32
4.20
-1.20
-5.65
-9.31
-12.71
-16.42
-20.80
-25.82
-31.07
-35.98
-40.08
-43.20
-45.58
-47.76
-50.43
-54.27
-59.67
-66.51
-73.96
-80.55
-84.44
-84.01
-78.36
-67.73
-53.45
-37.44
-21.64
-7.42
4.61
14.48
22.51
28.99
34.05
37.67
39.89
40.90
41.00
40.55
39.80
38.80
37.50
35.88
34.07
32.38
31.22
30.90
31.37
32.23
32.81
32.36
30.47
27.18
22.96
18.56
14.61
11.36
8.58
5.72
2.26
-1.95
-6.63
-11.19
-15.05
-17.99
-20.31
-22.71
-26.06
-30.97
-37.57
-45.31
-52.99
-59.09
-62.02
-60.68
-54.75
-44.77
-32.04
-18.14
-4.54
7.76
18.28
26.95
33.81
38.92
42.28
43.94
44.10
43.13
41.49
39.56
37.58
35.62
33.64
31.66
29.82
28.38
27.55
27.36
27.54
27.55
26.78
24.84
21.66
17.58
13.18
9.04
5.49
2.50
-0.31
-3.47
-7.35
-12.03
-17.23
-22.43
-27.09
-30.90
-33.90
-36.50
-39.39
-43.23
-48.48
-55.15
-62.69
-69.92
-75.29
-77.14
-74.30
-66.45
-54.35
-39.61
-24.17
-9.76
2.55
12.46
20.23
26.33
31.12
34.78
37.37
38.93
39.60
39.58
39.09
38.27
37.24
36.04
34.79
33.64
32.78
32.35
32.32
32.47
32.45
31.89
30.55
28.37
25.50
22.16
18.62
15.05
11.61
8.38
5.35
2.43
-0.54
-3.77
-7.41
-11.51
-15.93
-20.44
-24.73
-28.59
-31.91
-34.77
-37.49
-40.54
-44.53
-50.00
-57.12
-65.41
-73.65
-80.02
-82.60
-80.05
-72.07
-59.59
-44.41
-28.67
-14.10
-1.68
8.39
16.43
22.88
27.99
31.81
34.27
35.42
35.49
34.87
33.94
32.92
31.85
30.61
29.11
27.38
25.59
23.98
22.79
22.07
21.67
21.24
20.32
18.53
15.65
11.81
7.41
3.01
-0.88
-4.01
-6.44
-8.53
-10.73
-13.42
-16.76
-20.63
-24.76
-28.76
-32.33
-35.30
-37.73
-39.85
-42.05
-44.78
-48.45
-53.37
-59.57
-66.73
-73.96
-79.90
-82.90
-81.53
-75.07
-63.87
-49.29
-33.31
-17.85
-4.27
6.88
15.72
22.67
28.11
32.23
35.09
36.78
37.51
37.62
37.40
37.06
36.63
36.06
35.32
34.48
33.75
33.34
33.36
33.73
34.16
34.21
33.43
31.56
28.54
24.62
20.25
15.89
11.92
8.50
5.51
2.68
-0.29
-3.62
-7.32
-11.22
-15.08
-18.64
-21.78
-24.56
-27.28
-30.43
-34.59
-40.19
-47.18
-54.84
-61.69
-65.91
-65.80
-60.51
-50.31
-36.61
-21.44
-6.78
5.99
16.36
24.50
30.87
35.86
39.53
41.76
42.43
41.61
39.68
37.18
34.68
32.57
31.00
29.93
29.23
28.77
28.51
28.40
28.37
28.24
27.80
26.82
25.12
22.66
19.51
15.84
11.85
7.69
3.45
-0.86
-5.23
-9.66
-14.08
-18.38
-22.43
-26.23
-29.90
-33.80
-38.46
-44.35
-51.65
-59.88
-67.81
-73.66
-75.58
-72.33
-63.71
-50.70
-35.15
-19.12
-4.32
8.30
18.53
26.64
33.08
38.20
42.17
45.06
46.86
47.62
47.43
46.44
44.79
42.67
40.31
37.99
36.02
34.67
34.06
34.04
34.21
34.03
33.00
30.87
27.65
23.65
19.29
14.92
10.73
6.70
2.64
-1.63
-6.25
-11.21
-16.39
-21.62
-26.74
-31.63
-36.31
-40.90
-45.68
-51.07
-57.46
-64.99
-73.22
-81.01
-86.59
-88.11
-84.21
-74.61
-60.30
-43.30
-25.90
-10.03
3.24
13.77
22.04
28.72
34.25
38.77
42.18
44.35
45.26
45.07
44.02
42.34
40.18
37.72
35.17
32.86
31.15
30.27
30.19
30.57
30.85
30.44
28.93
26.14
22.20
17.48
12.40
7.36
2.62
-1.83
-6.13
-10.53
-15.18
-20.06
-25.00
-29.77
-34.21
-38.39
-42.67
-47.56
-53.56
-60.90
-69.25
-77.56
-84.16
-87.17
-85.04
-77.16
-64.17
-47.81
-30.32
-13.79
0.44
11.97
21.09
28.41
34.47
39.50
43.51
46.39
48.11
48.74
48.47
47.56
46.24
44.72
43.15
41.69
40.48
39.64
39.20
39.08
39.03
38.69
37.69
35.73
32.71
28.80
24.32
19.67
15.14
10.84
6.71
2.60
-1.68
-6.15
-10.71
-15.16
-19.25
-22.89
-26.22
-29.67
-33.89
-39.47
-46.57
-54.56
-62.01
-66.97
-67.59
-62.83
-52.88
-39.17
-23.90
-9.28
3.12
12.75
19.94
25.46
30.07
34.05
37.29
39.36
39.96
39.13
37.30
35.13
33.25
32.01
31.39
31.17
31.04
30.83
30.53
30.19
29.83
29.34
28.44
26.82
24.21
20.54
15.97
10.85
5.57
0.44
-4.43
-9.04
-13.53
-17.96
-22.36
-26.73
-31.22
-36.19
-42.13
-49.37
-57.72
-66.12
-72.78
-75.65
-73.11
-64.66
-51.17
-34.53
-17.03
-0.57
13.77
25.77
35.73
44.06
50.89
56.11
59.44
60.75
60.22
58.37
55.88
53.41
51.35
49.77
48.43
46.95
45.09
42.80
40.28
37.78
35.50
33.36
31.00
27.89
23.55
17.78
10.83
3.32
-3.93
-10.23
-15.28
-19.30
-22.91
-26.88
-31.95
-38.56
-46.80
-56.26
-66.04
-74.70
-80.55
-81.96
-77.93
-68.47
-54.69
-38.47
-21.88
-6.55
6.67
17.71
26.91
34.69
41.22
46.45
50.24
52.58
53.63
53.67
53.02
51.87
50.33
48.52
46.64
44.97
43.79
43.21
43.01
42.72
41.72
39.53
36.00
31.35
26.04
20.59
15.34
10.39
5.59
0.61
-4.79
-10.73
-17.07
-23.45
-29.48
-34.90
-39.79
-44.63
-50.17
-57.10
-65.64
-75.21
-84.31
-90.94
-93.13
-89.62
-80.31
-66.31
-49.51
-32.01
-15.44
-0.67
12.18
23.40
33.30
41.88
48.87
53.96
57.00
58.19
58.02
57.02
55.61
53.98
52.10
49.97
47.68
45.47
43.63
42.34
41.51
40.84
39.80
37.88
34.70
30.21
24.67
18.67
12.90
7.93
4.01
0.97
-1.74
-4.78
-8.65
-13.56
-19.25
-25.18
-30.74
-35.50
-39.39
-42.76
-46.13
-50.14
-55.25
-61.72
-69.38
-77.64
-85.36
-91.05
-93.13
-90.41
-82.50
-70.03
-54.47
-37.64
-21.20
-6.26
6.73
17.80
27.15
34.92
41.16
45.87
49.07
50.91
51.62
51.46
50.65
49.34
47.64
45.68
43.70
42.02
40.94
40.61
40.86
41.23
41.04
39.70
36.89
32.76
27.80
22.69
18.00
13.98
10.52
7.25
3.76
-0.19
-4.57
-9.10
-13.38
-17.09
-20.14
-22.67
-25.05
-27.76
-31.31
-36.04
-42.04
-48.95
-55.84
-61.31
-63.75
-61.84
-55.01
-43.72
-29.36
-13.81
1.16
14.40
25.44
34.45
41.78
47.72
52.31
55.48
57.11
57.25
56.07
53.91
51.10
47.98
44.84
41.95
39.52
37.69
36.51
35.87
35.46
34.83
33.49
31.09
27.54
23.06
18.09
13.16
8.61
4.55
0.80
-2.97
-7.07
-11.57
-16.34
-21.02
-25.27
-28.91
-32.09
-35.22
-38.86
-43.53
-49.50
-56.59
-64.10
-70.89
-75.51
-76.65
-73.45
-65.80
-54.46
-40.80
-26.41
-12.71
-0.59
9.61
17.98
24.81
30.38
34.86
38.34
40.85
42.39
42.96
42.60
41.44
39.71
37.68
35.67
33.95
32.71
32.02
31.80
31.87
31.91
31.58
30.56
28.65
25.85
22.33
18.37
14.32
10.43
6.88
3.76
1.04
-1.38
-3.71
-6.19
-9.04
-12.40
-16.17
-20.13
-23.93
-27.28
-30.09
-32.54
-35.00
-37.99
-41.97
-47.22
-53.66
-60.67
-67.15
-71.58
-72.48
-68.86
-60.66
-48.84
-35.10
-21.29
-8.86
1.48
9.73
16.25
21.43
25.49
28.43
30.23
30.97
30.89
30.26
29.30
28.08
26.60
24.86
22.97
21.16
19.70
18.86
18.68
18.98
19.39
19.43
18.73
17.10
14.62
11.54
8.22
4.94
1.90
-0.81
-3.18
-5.29
-7.30
-9.42
-11.83
-14.65
-17.79
-20.98
-23.93
-26.37
-28.21
-29.61
-30.84
-32.36
-34.65
-38.15
-43.17
-49.58
-56.61
-62.82
-66.43
-65.82
-60.24
-50.06
-36.74
-22.32
-8.67
2.91
11.97
18.61
23.26
26.32
28.11
28.87
28.85
28.27
27.32
26.15
24.85
23.48
22.13
20.93
19.95
19.25
18.82
18.56
18.30
17.86
17.02
15.63
13.69
11.35
8.83
6.39
4.13
1.97
-0.26
-2.74
-5.52
-8.46
-11.33
-13.93
-16.14
-18.04
-19.76
-21.53
-23.60
-26.28
-29.89
-34.58
-40.07
-45.45
-49.27
-49.94
-46.33
-38.32
-26.95
-14.06
-1.62
8.90
16.93
22.71
26.87
30.00
32.38
33.94
34.52
34.01
32.49
30.26
27.70
25.21
23.07
21.44
20.31
19.53
18.87
18.07
16.94
15.44
13.63
11.61
9.43
7.02
4.22
0.87
-3.05
-7.40
-11.89
-16.22
-20.20
-23.84
-27.23
-30.56
-34.00
-37.66
-41.72
-46.35
-51.60
-57.32
-62.88
-67.16
-68.83
-66.70
-60.26
-49.93
-37.01
-23.24
-10.31
0.68
9.34
15.85
20.73
24.46
27.33
29.42
30.70
31.15
30.80
29.81
28.34
26.58
24.68
22.78
21.00
19.50
18.32
17.42
16.62
15.62
14.13
11.99
9.25
6.05
2.62
-0.91
-4.52
-8.29
-12.31
-16.61
-21.10
-25.61
-29.98
-34.08
-37.94
-41.82
-46.20
-51.58
-58.19
-65.65
-72.84
-78.06
-79.55
-76.14
-67.72
-55.37
-40.97
-26.55
-13.61
-2.84
5.89
13.10
19.32
24.73
29.16
32.29
33.89
33.96
32.79
30.80
28.39
25.84
23.31
20.94
18.94
17.52
16.84
16.86
17.24
17.43
16.90
15.29
12.62
9.16
5.33
1.50
-2.19
-5.77
-9.42
-13.27
-17.37
-21.62
-25.85
-29.88
-33.68
-37.38
-41.32
-46.00
-51.88
-59.09
-67.15
-74.83
-80.38
-81.98
-78.36
-69.36
-56.01
-40.23
-24.18
-9.55
2.83
13.01
21.51
28.84
35.19
40.33
43.86
45.51
45.39
43.99
42.06
40.30
39.11
38.53
38.27
37.93
37.24
36.19
34.96
33.79
32.78
31.74
30.28
27.90
24.23
19.21
13.11
6.51
0.10
-5.55
-10.23
-14.05
-17.49
-21.20
-25.77
-31.64
-38.96
-47.50
-56.59
-65.10
-71.45
-74.07
-71.74
-64.11
-51.83
-36.41
-19.71
-3.39
11.43
24.31
35.23
44.32
51.63
57.12
60.71
62.41
62.40
61.01
58.70
55.90
52.97
50.14
47.47
44.97
42.63
40.49
38.60
36.93
35.31
33.43
30.87
27.30
22.57
16.82
10.43
3.87
-2.45
-8.37
-13.98
-19.61
-25.72
-32.81
-41.19
-50.82
-61.14
-70.92
-78.45
-81.86
-79.75
-71.67
-58.41
-41.73
-23.87
-6.81
8.25
20.95
31.63
40.80
48.74
55.38
60.34
63.29
64.12
63.17
61.10
58.65
56.37
54.53
53.03
51.66
50.23
48.63
46.93
45.15
43.26
41.10
38.48
35.19
31.08
26.10
20.28
13.78
6.84
-0.21
-7.03
-13.38
-19.21
-24.68
-30.10
-35.83
-42.19
-49.44
-57.71
-66.88
-76.34
-84.89
-90.74
-92.01
-87.32
-76.39
-60.28
-41.03
-21.02
-2.22
14.28
28.29
40.15
50.31
58.95
66.03
71.34
74.76
76.33
76.32
75.09
73.08
70.66
68.16
65.79
63.74
62.11
60.96
60.22
59.69
58.94
57.49
54.84
50.74
45.26
38.83
32.06
25.54
19.61
14.28
9.26
4.12
-1.46
-7.63
-14.22
-20.91
-27.31
-33.15
-38.33
-43.08
-47.86
-53.38
-60.33
-69.12
-79.47
-90.19
-99.29
-104.48
-103.85
-96.58
-83.27
-65.76
-46.53
-27.84
-11.16
3.03
15.00
25.29
34.29
42.01
48.18
52.51
54.90
55.59
55.14
54.16
53.07
52.02
50.90
49.51
47.76
45.76
43.82
42.19
40.95
39.89
38.55
36.44
33.26
28.99
23.91
18.54
13.42
8.99
5.41
2.54
-0.06
-2.97
-6.74
-11.55
-17.22
-23.19
-28.83
-33.72
-37.78
-41.33
-44.92
-49.15
-54.50
-61.29
-69.57
-78.98
-88.61
-96.90
-101.94
-101.93
-95.92
-84.11
-67.99
-49.74
-31.57
-15.03
-0.77
11.27
21.42
29.92
36.70
41.61
44.61
45.97
46.17
45.72
44.97
44.05
42.96
41.72
40.49
39.53
39.03
38.94
38.97
38.61
37.36
34.92
31.27
26.74
21.83
17.04
12.71
8.87
5.26
1.47
-2.86
-7.86
-13.36
-18.97
-24.28
-29.04
-33.24
-37.13
-41.13
-45.74
-51.32
-57.95
-65.14
-71.76
-76.17
-76.60
-71.81
-61.60
-46.95
-29.76
-12.19
3.96
17.75
29.03
38.14
45.53
51.43
55.78
58.41
59.18
58.23
55.90
52.79
49.53
46.64
44.41
42.83
41.69
40.67
39.45
37.91
36.05
33.99
31.84
29.53
26.86
23.48
19.10
13.61
7.20
0.29
-6.58
-12.96
-18.63
-23.61
-28.15
-32.68
-37.81
-44.13
-52.03
-61.42
-71.42
-80.37
-86.18
-86.93
-81.57
-70.34
-54.67
-36.77
-18.81
-2.38
11.77
23.57
33.28
41.16
47.36
51.97
55.15
57.15
58.24
58.57
58.07
56.58
54.04
50.63
46.85
43.35
40.71
39.19
38.69
38.73
38.63
37.75
35.62
32.10
27.42
22.07
16.61
11.43
6.58
1.75
-3.47
-9.41
-16.06
-23.09
-29.94
-36.20
-41.70
-46.62
-51.39
-56.54
-62.66
-70.17
-79.28
-89.66
-100.25
-109.25
-114.43
-113.78
-106.28
-92.34
-73.75
-53.17
-33.18
-15.60
-1.11
10.56
20.10
28.13
34.90
40.33
44.19
46.32
46.76
45.72
43.53
40.60
37.46
34.73
33.09
33.17
35.28
39.28
44.56
50.15
54.96
58.06
58.82
57.07
52.97
47.00
39.80
32.04
24.27
16.78
9.55
2.34
-5.20
-13.29
-21.87
-30.58
-38.89
-46.31
-52.60
-57.83
-62.43
-67.05
-72.48
-79.39
-88.14
-98.42
-109.02
-117.94
-122.79
-121.57
-113.33
-98.64
-79.41
-58.19
-37.42
-18.71
-2.69
10.71
21.86
31.05
38.35
43.84
47.65
50.12
51.62
52.45
52.67
52.22
51.01
49.13
46.92
44.85
43.39
42.74
42.81
43.15
43.15
42.23
40.04
36.54
32.06
27.11
22.21
17.67
13.48
9.36
4.89
-0.18
-5.80
-11.63
-17.17
-21.97
-25.87
-29.02
-31.87
-35.09
-39.42
-45.40
-53.19
-62.22
-71.07
-77.65
-79.74
-75.71
-65.17
-49.16
-29.83
-9.74
8.92
24.88
37.72
47.72
55.28
60.71
64.11
65.51
64.99
62.87
59.68
56.03
52.53
49.60
47.46
46.08
45.28
44.76
44.23
43.48
42.38
40.95
39.19
37.04
34.35
30.85
26.37
20.93
14.82
8.51
2.52
-2.82
-7.44
-11.58
-15.58
-19.93
-25.05
-31.34
-39.02
-47.84
-56.93
-64.69
-69.14
-68.47
-61.79
-49.54
-33.39
-15.79
0.95
15.24
26.46
34.83
40.91
45.19
47.92
49.13
48.90
47.40
44.98
42.01
38.77
35.46
32.21
29.17
26.51
24.41
22.94
21.97
21.19
20.20
18.65
16.39
13.47
10.09
6.40
2.41
-2.06
-7.21
-13.14
-19.65
-26.29
-32.46
-37.71
-41.92
-45.39
-48.77
-52.85
-58.37
-65.73
-74.79
-84.60
-93.41
-99.01
-99.31
-93.09
-80.46
-62.92
-42.86
-22.74
-4.40
11.25
24.12
34.57
42.95
49.38
53.83
56.29
56.94
56.16
54.43
52.20
49.70
47.05
44.33
41.72
39.53
38.04
37.31
37.08
36.78
35.76
33.54
30.05
25.53
20.45
15.20
9.96
4.68
-0.87
-6.95
-13.67
-20.95
-28.43
-35.59
-41.91
-47.14
-51.49
-55.72
-60.96
-68.23
-77.96
-89.50
-101.01
-109.86
-113.38
-109.76
-98.72
-81.59
-60.83
-39.23
-19.10
-1.79
12.25
23.22
31.57
37.66
41.73
44.00
44.77
44.42
43.35
41.85
40.08
38.07
35.82
33.42
31.13
29.25
28.02
27.39
27.03
26.39
24.92
22.31
18.62
14.24
9.67
5.21
0.88
-3.64
-8.74
-14.62
-21.15
-27.85
-34.13
-39.53
-43.97
-47.75
-51.46
-55.86
-61.57
-68.93
-77.62
-86.46
-93.51
-96.43
-93.24
-83.12
-66.81
-46.44
-24.76
-4.32
13.31
27.57
38.67
47.03
52.91
56.36
57.44
56.41
53.85
50.54
47.21
44.38
42.22
40.60
39.19
37.72
36.03
34.12
32.16
30.32
28.64
27.01
25.09
22.49
18.84
13.98
8.03
1.32
-5.62
-12.32
-18.44
-23.85
-28.66
-33.20
-37.93
-43.44
-50.28
-58.78
-68.71
-79.03
-87.85
-92.88
-92.03
-84.16
-69.58
-50.04
-28.16
-6.67
12.36
27.95
40.16
49.67
57.22
63.23
67.70
70.36
71.05
69.92
67.48
64.39
61.24
58.34
55.70
53.18
50.67
48.21
45.92
43.92
42.12
40.18
37.61
33.84
28.47
21.48
13.21
4.38
-4.21
-11.91
-18.46
-24.10
-29.48
-35.48
-42.95
-52.42
-63.79
-76.10
-87.50
-95.58
-98.00
-93.28
-81.35
-63.70
-42.79
-21.36
-1.50
15.70
30.09
42.08
52.06
60.19
66.34
70.27
71.96
71.66
69.93
67.44
64.78
62.26
59.88
57.46
54.80
51.79
48.55
45.30
42.23
39.33
36.33
32.75
28.09
22.01
14.48
5.80
-3.43
-12.51
-20.86
-28.18
-34.54
-40.33
-46.16
-52.65
-60.37
-69.70
-80.62
-92.54
-104.06
-113.06
-117.12
-114.30
-103.86
-86.64
-64.84
-41.29
-18.56
1.74
19.07
33.62
45.86
56.05
64.18
70.09
73.78
75.42
75.41
74.21
72.19
69.58
66.53
63.19
59.83
56.83
54.49
52.90
51.80
50.61
48.67
45.46
40.82
34.98
28.45
21.82
15.47
9.51
3.75
-2.17
-8.57
-15.55
-22.96
-30.43
-37.52
-43.89
-49.53
-54.70
-59.97
-66.06
-73.64
-82.98
-93.64
-104.21
-112.50
-116.00
-112.71
-101.97
-84.74
-63.37
-40.74
-19.36
-0.67
14.99
28.01
38.90
47.87
54.74
59.18
61.09
60.78
58.93
56.36
53.73
51.32
49.05
46.67
44.06
41.34
38.87
37.08
36.11
35.72
35.27
33.98
31.24
26.91
21.37
15.41
9.91
5.45
2.11
-0.60
-3.49
-7.28
-12.25
-18.10
-24.06
-29.27
-33.21
-35.91
-37.97
-40.31
-43.88
-49.35
-56.92
-66.10
-75.63
-83.56
-87.64
-85.96
-77.60
-63.05
-44.15
-23.45
-3.41
14.26
28.90
40.68
50.11
57.64
63.45
67.49
69.74
70.34
69.59
67.89
65.62
63.04
60.29
57.51
54.93
52.81
51.38
50.63
50.22
49.55
47.96
44.93
40.35
34.53
28.05
21.55
15.40
9.63
4.01
-1.77
-7.87
-14.18
-20.37
-26.08
-31.09
-35.51
-39.79
-44.58
-50.56
-58.18
-67.33
-77.15
-86.10
-92.15
-93.40
-88.67
-77.99
-62.59
-44.52
-25.99
-8.67
6.55
19.50
30.35
39.28
46.30
51.32
54.37
55.65
55.57
54.55
52.92
50.85
48.41
45.67
42.85
40.28
38.33
37.23
36.89
36.89
36.57
35.21
32.40
28.17
23.00
17.62
12.69
8.51
4.96
1.54
-2.30
-6.92
-12.34
-18.29
-24.34
-30.12
-35.40
-40.18
-44.64
-49.16
-54.30
-60.63
-68.48
-77.65
-87.07
-94.88
-98.81
-96.97
-88.57
-74.34
-56.27
-36.98
-18.81
-3.17
9.58
19.86
28.34
35.44
41.27
45.61
48.31
49.36
49.02
47.70
45.81
43.66
41.39
39.09
36.82
34.75
33.12
32.10
31.72
31.70
31.47
30.28
27.52
22.93
16.80
9.87
3.09
-2.76
-7.40
-11.12
-14.64
-18.73
-23.85
-29.92
-36.40
-42.54
-47.71
-51.67
-54.62
-57.13
-59.95
-63.81
-69.30
-76.57
-85.18
-93.96
-101.02
-104.22
-101.78
-92.95
-78.34
-59.84
-39.92
-20.90
-4.31
9.29
20.11
28.62
35.22
40.10
43.30
44.98
45.45
45.11
44.34
43.30
42.01
40.37
38.41
36.35
34.53
33.30
32.78
32.72
32.59
31.74
29.67
26.25
21.73
16.64
11.55
6.87
2.69
-1.16
-4.98
-9.02
-13.37
-17.92
-22.42
-26.58
-30.20
-33.20
-35.67
-37.98
-40.70
-44.53
-50.04
-57.25
-65.33
-72.53
-76.63
-75.55
-68.20
-54.88
-37.23
-17.66
1.47
18.49
32.67
43.97
52.77
59.35
63.92
66.56
67.46
66.88
65.22
62.85
60.11
57.30
54.64
52.31
50.36
48.70
47.10
45.34
43.25
40.82
38.12
35.22
32.07
28.48
24.19
19.00
12.91
6.15
-0.82
-7.46
-13.32
-18.17
-22.09
-25.46
-28.82
-32.74
-37.72
-44.08
-51.78
-60.31
-68.56
-74.93
-77.63
-75.26
-67.31
-54.44
-38.27
-20.95
-4.44
9.92
21.61
30.75
37.82
43.30
47.53
50.65
52.66
53.54
53.30
52.11
50.24
48.01
45.78
43.82
42.27
41.19
40.49
39.98
39.40
38.41
36.73
34.19
30.79
26.72
22.23
17.54
12.76
7.87
2.79
-2.52
-8.00
-13.47
-18.69
-23.59
-28.28
-33.15
-38.69
-45.37
-53.34
-62.16
-70.82
-77.73
-81.20
-79.81
-72.95
-61.06
-45.45
-28.03
-10.67
5.15
18.66
29.68
38.45
45.38
50.81
54.97
58.00
59.93
60.79
60.62
59.50
57.62
55.23
52.68
50.35
48.52
47.31
46.59
45.97
44.96
43.11
40.20
36.29
31.66
26.69
21.63
16.52
11.19
5.38
-1.15
-8.52
-16.59
-25.05
-33.46
-41.40
-48.60
-55.03
-61.01
-67.03
-73.65
-81.20
-89.53
-97.76
-104.42
-107.72
-106.11
-98.85
-86.24
-69.64
-51.02
-32.40
-15.35
-0.75
11.20
20.72
28.19
33.97
38.33
41.49
43.61
44.84
45.30
45.05
44.21
42.96
41.59
40.48
39.95
40.09
40.73
41.43
41.64
40.98
39.27
36.59
33.13
29.02
24.36
19.13
13.40
7.32
1.16
-4.80
-10.34
-15.38
-19.98
-24.28
-28.53
-32.99
-38.03
-44.00
-51.17
-59.45
-68.13
-75.83
-80.71
-81.03
-75.75
-65.00
-50.15
-33.33
-16.71
-1.91
10.37
20.16
27.87
33.88
38.34
41.21
42.43
42.16
40.77
38.80
36.76
35.03
33.68
32.61
31.58
30.39
29.01
27.51
26.05
24.71
23.42
21.90
19.76
16.62
12.25
6.71
0.33
-6.31
-12.63
-18.21
-22.97
-27.16
-31.34
-36.15
-42.22
-49.86
-58.89
-68.43
-76.88
-82.24
-82.61
-76.91
-65.39
-49.54
-31.69
-14.14
1.57
14.85
25.91
35.18
42.84
48.67
52.29
53.49
52.46
49.87
46.55
43.28
40.46
38.13
36.07
34.05
31.94
29.87
28.11
26.86
26.04
25.23
23.74
20.90
16.36
10.28
3.32
-3.62
-9.78
-14.78
-18.77
-22.32
-26.11
-30.78
-36.81
-44.34
-53.21
-62.73
-71.64
-78.13
-80.26
-76.57
-66.62
-51.34
-32.81
-13.57
4.15
19.07
30.99
40.48
48.29
54.92
60.39
64.41
66.62
66.84
65.28
62.35
58.62
54.58
50.63
47.01
43.83
41.07
38.66
36.48
34.42
32.37
30.26
27.95
25.22
21.73
17.19
11.44
4.63
-2.79
-10.22
-17.12
-23.22
-28.57
-33.48
-38.38
-43.74
-49.99
-57.54
-66.54
-76.66
-86.78
-95.08
-99.34
-97.71
-89.34
-74.81
-55.95
-35.21
-14.89
3.43
19.05
32.01
42.59
51.11
57.71
62.43
65.34
66.56
66.37
65.05
62.90
60.18
57.13
54.02
51.10
48.66
46.89
45.86
45.43
45.24
44.72
43.28
40.45
36.08
30.46
24.23
18.11
12.59
7.69
2.99
-2.16
-8.24
-15.31
-22.98
-30.59
-37.60
-43.75
-49.18
-54.36
-59.90
-66.41
-74.39
-83.99
-94.84
-105.80
-115.05
-120.38
-119.87
-112.59
-98.88
-80.36
-59.37
-38.26
-18.82
-1.98
12.07
23.56
32.86
40.21
45.69
49.28
50.98
50.93
49.50
47.16
44.42
41.66
39.08
36.70
34.53
32.61
31.06
29.99
29.35
28.90
28.21
26.83
24.38
20.73
15.99
10.52
4.84
-0.49
-5.02
-8.64
-11.60
-14.51
-18.04
-22.63
-28.26
-34.43
-40.37
-45.48
-49.54
-52.84
-56.03
-59.91
-65.13
-72.07
-80.69
-90.41
-99.96
-107.54
-111.08
-108.89
-100.25
-85.69
-66.91
-46.22
-25.82
-7.28
8.67
21.93
32.72
41.24
47.64
52.00
54.51
55.49
55.34
54.48
53.24
51.83
50.36
48.93
47.75
47.05
47.02
47.65
48.61
49.29
48.95
47.07
43.51
38.66
33.25
28.03
23.52
19.74
16.30
12.58
8.07
2.56
-3.76
-10.37
-16.66
-22.19
-26.84
-30.87
-34.89
-39.66
-45.88
-53.89
-63.36
-73.16
-81.44
-86.07
-85.21
-78.01
-64.91
-47.54
-28.23
-9.23
7.81
22.11
33.64
42.78
49.97
55.50
59.46
61.91
62.94
62.74
61.57
59.73
57.48
55.08
52.76
50.78
49.30
48.42
48.00
47.72
47.13
45.78
43.37
39.84
35.36
30.22
24.80
19.32
13.85
8.30
2.42
-3.95
-10.83
-18.05
-25.24
-32.02
-38.11
-43.52
-48.61
-54.04
-60.62
-69.00
-79.24
-90.55
-101.15
-108.68
-110.84
-106.18
-94.67
-77.71
-57.71
-37.27
-18.45
-2.30
11.08
22.22
31.77
40.10
47.22
52.88
56.84
59.07
59.82
59.45
58.32
56.65
54.52
52.06
49.52
47.35
45.98
45.63
46.14
46.94
47.24
46.30
43.73
39.59
34.36
28.74
23.36
18.61
14.46
10.53
6.25
1.16
-4.90
-11.66
-18.54
-24.92
-30.43
-35.10
-39.40
-44.08
-49.94
-57.62
-67.29
-78.41
-89.67
-99.10
-104.47
-104.02
-96.99
-83.97
-66.70
-47.46
-28.38
-10.92
4.33
17.36
28.37
37.48
44.68
49.87
53.11
54.63
54.86
54.25
53.15
51.76
50.12
48.25
46.23
44.33
42.86
42.13
42.19
42.78
43.30
43.07
41.50
38.33
33.73
28.26
22.60
17.33
12.71
8.66
4.80
0.70
-3.96
-9.27
-15.06
-21.03
-26.86
-32.31
-37.26
-41.74
-45.91
-50.07
-54.73
-60.44
-67.59
-76.08
-84.99
-92.66
-96.98
-96.01
-88.73
-75.40
-57.54
-37.51
-17.69
0.10
14.93
26.75
35.99
43.19
48.68
52.54
54.72
55.22
54.28
52.35
50.00
47.70
45.73
44.16
42.96
42.10
41.62
41.56
41.83
42.12
41.96
40.79
38.27
34.37
29.45
24.06
18.74
13.77
9.12
4.51
-0.35
-5.61
-11.15
-16.63
-21.66
-25.96
-29.56
-32.84
-36.46
-41.22
-47.70
-55.89
-64.92
-73.11
-78.25
-78.38
-72.40
-60.50
-44.12
-25.43
-6.65
10.54
25.30
37.47
47.30
55.06
60.84
64.53
65.99
65.26
62.71
59.04
55.15
51.82
49.48
48.09
47.19
46.27
44.94
43.18
41.27
39.50
37.96
36.36
34.11
30.59
25.45
18.84
11.37
3.88
-2.86
-8.44
-12.92
-16.72
-20.46
-24.74
-30.05
-36.73
-44.87
-54.21
-63.97
-72.79
-78.91
-80.59
-76.68
-67.06
-52.70
-35.40
-17.26
-0.07
15.01
27.53
37.59
45.45
51.41
55.60
58.16
59.22
59.02
57.83
55.99
53.70
51.13
48.36
45.50
42.68
40.06
37.71
35.61
33.57
31.36
28.73
25.53
21.65
16.98
11.37
4.74
-2.84
-10.98
-19.04
-26.28
-32.12
-36.40
-39.43
-41.96
-44.89
-49.03
-54.90
-62.45
-70.95
-78.96
-84.57
-85.81
-81.34
-70.92
-55.53
-37.20
-18.21
-0.56
14.60
26.95
36.78
44.61
50.89
55.91
59.72
62.34
63.72
63.82
62.67
60.40
57.27
53.71
50.28
47.49
45.76
45.11
45.21
45.42
44.96
43.23
40.02
35.52
30.27
24.83
19.56
14.48
9.33
3.76
-2.42
-9.09
-15.92
-22.49
-28.52
-33.97
-39.04
-44.08
-49.54
-55.88
-63.51
-72.53
-82.49
-92.16
-99.62
-102.75
-99.90
-90.59
-75.74
-57.38
-37.98
-19.67
-3.74
9.41
19.92
28.19
34.53
39.11
42.08
43.61
43.95
43.34
41.99
39.98
37.31
34.01
30.24
26.32
22.75
20.06
18.57
18.20
18.44
18.49
17.55
15.13
11.25
6.37
1.19
-3.66
-7.80
-11.21
-14.19
-17.18
-20.55
-24.51
-29.02
-33.84
-38.66
-43.16
-47.24
-50.96
-54.61
-58.66
-63.67
-70.12
-78.13
-87.17
-95.89
-102.23
-104.01
-99.64
-88.80
-72.66
-53.50
-33.94
-16.09
-1.08
11.01
20.68
28.57
35.08
40.31
44.22
46.72
47.87
47.82
46.81
45.14
43.16
41.22
39.62
38.48
37.74
37.18
36.52
35.51
34.01
31.97
29.34
26.09
22.22
17.72
12.71
7.34
1.81
-3.71
-9.12
-14.37
-19.45
-24.30
-28.88
-33.16
-37.26
-41.54
-46.57
-52.94
-60.85
-69.74
-78.08
-83.67
-84.33
-78.70
-66.84
-50.27
-31.42
-12.77
3.90
17.86
29.27
38.68
46.51
52.83
57.40
59.94
60.46
59.26
56.97
54.25
51.58
49.22
47.17
45.37
43.75
42.32
41.10
40.03
38.97
37.70
35.92
33.34
29.72
24.94
19.10
12.53
5.78
-0.57
-6.08
-10.65
-14.54
-18.30
-22.55
-27.81
-34.42
-42.40
-51.42
-60.63
-68.65
-73.78
-74.37
-69.39
-58.84
-43.85
-26.34
-8.45
8.11
22.35
34.09
43.62
51.33
57.48
62.04
64.90
65.96
65.29
63.14
59.91
56.05
51.96
48.00
44.44
41.44
39.04
37.09
35.29
33.29
30.77
27.59
23.81
19.62
15.17
10.49
5.47
0.01
-5.92
-12.10
-18.20
-23.88
-28.97
-33.52
-37.80
-42.28
-47.47
-53.90
-61.83
-70.99
-80.34
-88.01
-91.74
-89.63
-80.89
-66.28
-47.88
-28.32
-9.91
6.00
19.17
30.01
39.07
46.65
52.65
56.82
59.11
59.67
58.95
57.46
55.56
53.39
50.93
48.13
45.11
42.17
39.75
38.15
37.39
37.07
36.52
34.99
31.93
27.26
21.35
14.89
8.64
3.13
-1.55
-5.71
-9.88
-14.57
-20.06
-26.21
-32.60
-38.68
-43.99
-48.41
-52.16
-55.82
-60.11
-65.75
-73.08
-81.79
-90.79
-98.29
-102.22
-100.84
-93.32
-80.07
-62.64
-43.19
-23.89
-6.39
8.47
20.52
30.03
37.47
43.17
47.36
50.17
51.67
51.99
51.27
49.69
47.40
44.49
41.10
37.48
33.98
31.06
29.09
28.15
27.95
27.81
26.96
24.81
21.17
16.30
10.79
5.36
0.52
-3.50
-6.83
-9.82
-12.95
-16.56
-20.84
-25.74
-31.00
-36.27
-41.26
-45.80
-49.92
-53.83
-57.87
-62.48
-68.09
-75.02
-83.19
-91.87
-99.58
-104.29
-103.97
-97.38
-84.52
-66.79
-46.57
-26.40
-8.31
6.69
18.48
27.47
34.20
39.04
42.13
43.58
43.54
42.35
40.44
38.25
36.12
34.24
32.68
31.39
30.32
29.43
28.65
27.89
26.96
25.61
23.56
20.63
16.82
12.28
7.35
2.40
-2.31
-6.71
-10.97
-15.37
-20.19
-25.44
-30.89
-36.03
-40.33
-43.47
-45.55
-47.11
-49.02
-52.14
-56.86
-62.78
-68.57
-72.22
-71.68
-65.50
-53.50
-36.82
-17.57
1.83
19.44
34.25
46.16
55.68
63.40
69.64
74.39
77.45
78.70
78.28
76.65
74.41
72.11
70.07
68.31
66.73
65.20
63.69
62.29
61.07
60.01
58.92
57.48
55.38
52.45
48.70
44.31
39.49
34.45
29.26
23.92
18.44
12.91
7.49
2.38
-2.32
-6.70
-11.17
-16.39
-23.10
-31.72
-41.98
-52.78
-62.18
-68.03
-68.56
-63.10
-52.32
-38.03
-22.45
-7.57
5.41
16.19
25.04
32.43
38.65
43.74
47.59
50.06
51.16
51.02
49.80
47.70
44.86
41.44
37.70
33.99
30.76
28.42
27.13
26.67
26.47
25.76
23.88
20.54
15.99
10.80
5.67
1.04
-3.13
-7.30
-12.10
-18.02
-25.09
-32.93
-40.86
-48.27
-54.82
-60.58
-65.99
-71.73
-78.51
-86.86
-96.77
-107.50
-117.43
-124.37
-126.08
-121.09
-109.26
-91.92
-71.44
-50.46
-31.08
-14.38
-0.54
10.89
20.44
28.46
35.03
40.12
43.68
45.82
46.69
46.53
45.56
44.02
42.15
40.25
38.65
37.64
37.34
37.69
38.33
38.72
38.26
36.52
33.36
29.00
23.86
18.42
12.96
7.47
1.73
-4.49
-11.28
-18.43
-25.54
-32.17
-38.07
-43.22
-47.91
-52.59
-57.81
-64.05
-71.55
-80.03
-88.53
-95.39
-98.61
-96.44
-88.09
-74.04
-56.00
-36.36
-17.39
-0.68
13.09
24.03
32.53
39.00
43.66
46.53
47.67
47.28
45.72
43.52
41.21
39.18
37.65
36.59
35.82
35.07
34.14
32.92
31.44
29.75
27.91
25.88
23.51
20.61
16.99
12.56
7.39
1.71
-4.13
-9.72
-14.79
-19.21
-23.11
-26.79
-30.67
-35.26
-41.03
-48.23
-56.73
-65.69
-73.60
-78.48
-78.40
-72.24
-60.11
-43.44
-24.53
-5.79
10.98
24.92
36.06
44.89
51.89
57.27
60.95
62.80
62.84
61.37
58.92
56.07
53.29
50.76
48.44
46.17
43.77
41.22
38.63
36.15
33.85
31.66
29.27
26.29
22.32
17.12
10.73
3.51
-4.04
-11.32
-17.93
-23.73
-28.86
-33.78
-39.10
-45.45
-53.29
-62.56
-72.53
-81.65
-87.81
-88.93
-83.64
-71.83
-54.79
-34.79
-14.37
4.49
20.69
34.05
44.90
53.61
60.37
65.09
67.67
68.15
66.84
64.24
60.94
57.45
54.08
50.96
48.05
45.26
42.55
39.89
37.31
34.83
32.36
29.75
26.76
23.13
18.69
13.37
7.24
0.52
-6.54
-13.61
-20.45
-26.86
-32.81
-38.37
-43.75
-49.31
-55.47
-62.77
-71.51
-81.57
-92.00
-101.02
-106.34
-105.83
-98.32
-84.10
-64.89
-43.25
-21.74
-2.15
14.75
29.04
41.22
51.74
60.73
68.11
73.66
77.27
79.03
79.20
78.15
76.29
73.94
71.40
68.91
66.71
65.06
64.05
63.58
63.27
62.47
60.51
56.93
51.67
45.17
38.15
31.35
25.21
19.72
14.50
8.95
2.63
-4.55
-12.31
-20.06
-27.20
-33.39
-38.67
-43.58
-49.02
-56.02
-65.34
-77.04
-90.09
-102.39
-111.24
-114.16
-109.82
-98.54
-82.19
-63.46
-44.91
-28.22
-13.91
-1.77
8.69
17.65
24.97
30.34
33.67
35.21
35.53
35.29
34.92
34.52
33.99
33.20
32.25
31.46
31.28
31.97
33.39
34.95
35.79
35.08
32.39
27.91
22.32
16.51
11.23
6.79
2.96
-0.83
-5.15
-10.24
-15.90
-21.62
-26.82
-31.19
-34.87
-38.41
-42.59
-48.15
-55.53
-64.54
-74.28
-83.16
-89.12
-90.23
-85.22
-74.01
-57.75
-38.56
-18.78
-0.40
15.41
28.30
38.44
46.16
51.68
55.04
56.27
55.55
53.26
50.01
46.37
42.81
39.61
36.87
34.60
32.80
31.39
30.27
29.21
27.90
26.05
23.49
20.22
16.37
12.14
7.65
2.87
-2.25
-7.76
-13.53
-19.33
-24.81
-29.70
-33.90
-37.60
-41.21
-45.35
-50.68
-57.75
-66.82
-77.48
-88.56
-98.10
-103.77
-103.57
-96.49
-82.96
-64.81
-44.61
-24.87
-7.32
7.40
19.54
29.75
38.58
46.26
52.69
57.74
61.39
63.81
65.25
65.97
66.11
65.80
65.20
64.54
64.06
63.91
64.02
64.06
63.52
61.88
58.84
54.35
48.66
42.24
35.62
29.15
22.97
16.90
10.63
3.86
-3.43
-10.99
-18.35
-25.04
-30.81
-35.78
-40.40
-45.35
-51.30
-58.66
-67.24
-76.07
-83.40
-87.00
-84.89
-76.01
-60.75
-40.84
-18.84
2.77
22.22
38.73
52.31
63.31
71.98
78.39
82.51
84.37
84.22
82.41
79.36
75.37
70.70
65.60
60.46
55.75
51.98
49.43
48.09
47.53
47.07
45.96
43.59
39.74
34.62
28.77
22.85
17.32
12.21
7.12
1.31
-5.93
-15.02
-25.84
-37.77
-49.89
-61.30
-71.44
-80.29
-88.42
-96.75
-106.23
-117.30
-129.42
-140.98
-149.51
-152.43
-147.89
-135.53
-116.60
-93.63
-69.50
-46.69
-26.67
-9.92
3.80
14.98
24.00
31.10
36.38
40.00
42.21
43.25
43.36
42.63
41.16
39.09
36.75
34.66
33.34
33.13
33.98
35.40
36.59
36.78
35.43
32.49
28.30
23.47
18.53
13.82
9.35
4.91
0.16
-5.18
-11.21
-17.85
-24.87
-32.00
-39.04
-45.98
-53.11
-60.94
-70.02
-80.53
-91.87
-102.44
-109.89
-111.79
-106.50
-93.81
-75.07
-52.76
-29.57
-7.64
11.90
28.82
43.37
55.83
66.19
74.28
79.94
83.29
84.75
84.95
84.49
83.82
83.13
82.41
81.50
80.22
78.35
75.71
72.14
67.52
61.84
55.18
47.71
39.64
31.15
22.43
13.66
5.05
-3.19
-10.88
-17.88
-24.14
-29.69
-34.58
-38.96
-43.05
-47.24
-52.10
-58.19
-65.81
-74.56
-83.20
-89.76
-92.02
-88.34
-78.27
-62.82
-44.15
-24.85
-7.10
7.79
19.53
28.45
35.00
39.52
42.08
42.73
41.63
39.21
36.12
33.08
30.73
29.50
29.55
30.75
32.79
35.19
37.53
39.41
40.60
40.97
40.49
39.16
36.96
33.91
30.05
25.46
20.28
14.71
8.86
2.86
-3.25
-9.38
-15.44
-21.29
-26.86
-32.25
-37.91
-44.50
-52.68
-62.61
-73.54
-83.67
-90.54
-91.80
-86.04
-73.42
-55.56
-35.02
-14.39
4.43
20.52
33.82
44.69
53.51
60.47
65.63
69.12
71.16
72.09
72.17
71.54
70.15
67.97
65.10
61.87
58.79
56.41
55.04
54.63
54.69
54.46
53.13
50.12
45.31
39.04
32.01
24.93
18.23
11.86
5.42
-1.66
-9.68
-18.54
-27.77
-36.73
-44.94
-52.27
-58.97
-65.62
-72.89
-81.43
-91.53
-102.90
-114.40
-124.13
-129.75
-129.24
-121.57
-107.16
-87.83
-66.21
-44.91
-25.83
-9.86
2.99
13.23
21.42
27.94
32.94
36.44
38.44
39.06
38.49
37.10
35.27
33.38
31.73
30.48
29.67
29.21
28.88
28.42
27.54
26.01
23.67
20.52
16.65
12.14
7.05
1.35
-4.95
-11.77
-18.90
-26.01
-32.75
-38.89
-44.40
-49.46
-54.47
-60.00
-66.72
-75.07
-85.01
-95.57
-104.86
-110.40
-109.90
-102.06
-87.14
-66.93
-44.13
-21.44
-0.84
16.71
31.09
42.61
51.52
57.92
61.77
63.14
62.37
60.09
57.06
53.99
51.31
49.15
47.32
45.52
43.47
41.05
38.37
35.62
33.02
30.59
28.16
25.34
21.75
17.11
11.44
5.05
-1.59
-8.04
-14.09
-19.81
-25.55
-31.76
-38.86
-47.14
-56.78
-67.87
-80.24
-93.31
-105.81
-115.86
-121.28
-120.22
-111.89
-96.88
-77.08
-55.03
-33.09
-12.89
4.96
20.54
34.26
46.42
57.01
65.78
72.42
76.79
78.99
79.42
78.60
77.08
75.31
73.52
71.78
70.05
68.26
66.30
64.12
61.60
58.62
55.02
50.65
45.45
39.40
32.57
25.09
17.11
8.84
0.53
-7.59
-15.35
-22.76
-29.98
-37.35
-45.28
-54.15
-64.21
-75.38
-87.04
-97.87
-105.97
-109.15
-105.64
-94.77
-77.28
-55.28
-31.51
-8.56
11.90
29.32
44.06
56.78
67.98
77.70
85.64
91.42
94.91
96.27
95.91
94.31
91.84
88.80
85.47
82.21
79.43
77.40
76.07
74.99
73.42
70.63
66.23
60.31
53.30
45.73
37.94
29.96
21.65
12.88
3.77
-5.31
-13.94
-21.74
-28.64
-34.87
-40.93
-47.47
-55.10
-64.22
-74.72
-85.72
-95.64
-102.37
-103.87
-98.81
-87.06
-69.83
-49.30
-28.03
-8.16
8.97
23.01
34.29
43.37
50.66
56.27
60.03
61.76
61.48
59.54
56.49
52.93
49.25
45.59
41.85
37.87
33.57
29.08
24.61
20.33
16.33
12.50
8.61
4.42
-0.24
-5.40
-10.99
-16.85
-22.81
-28.69
-34.31
-39.51
-44.18
-48.35
-52.19
-56.12
-60.75
-66.69
-74.23
-83.01
-91.82
-98.65
-101.24
-97.79
-87.61
-71.49
-51.38
-29.80
-9.04
9.39
24.93
37.62
47.72
55.39
60.59
63.28
63.66
62.25
59.82
57.18
54.93
53.30
52.14
51.04
49.60
47.61
45.18
42.68
40.53
38.97
37.79
36.39
33.94
29.83
23.96
16.86
9.43
2.57
-3.24
-8.11
-12.55
-17.31
-23.00
-30.08
-38.68
-48.63
-59.20
-69.07
-76.36
-79.08
-75.77
-66.04
-50.82
-32.16
-12.56
5.76
21.39
33.85
43.38
50.50
55.67
59.05
60.57
60.13
57.79
53.89
48.94
43.55
38.10
32.69
27.18
21.39
15.28
9.05
3.10
-2.19
-6.66
-10.57
-14.40
-18.74
-23.90
-29.75
-35.73
-41.07
-45.10
-47.56
-48.69
-49.19
-49.96
-51.92
-55.79
-61.93
-70.22
-79.90
-89.51
-97.06
-100.40
-97.85
-88.72
-73.61
-54.25
-32.95
-11.96
7.16
23.65
37.46
48.87
58.16
65.43
70.62
73.69
74.68
73.82
71.49
68.17
64.31
60.32
56.53
53.16
50.35
48.13
46.39
44.87
43.24
41.13
38.27
34.53
29.93
24.55
18.59
12.18
5.53
-1.16
-7.70
-13.88
-19.63
-24.99
-30.16
-35.47
-41.34
-48.20
-56.40
-65.97
-76.39
-86.40
-94.16
-97.57
-94.98
-85.77
-70.67
-51.53
-30.75
-10.49
7.84
23.74
37.30
48.81
58.40
65.97
71.37
74.61
75.95
75.81
74.62
72.68
70.15
67.17
63.95
60.80
58.09
56.14
55.02
54.59
54.39
53.80
52.20
49.13
44.50
38.60
32.05
25.47
19.26
13.36
7.41
0.95
-6.28
-14.12
-22.10
-29.63
-36.32
-42.17
-47.48
-52.87
-59.09
-66.79
-76.26
-87.12
-98.15
-107.35
-112.44
-111.53
-103.79
-89.81
-71.31
-50.59
-29.80
-10.47
6.58
21.03
32.81
41.95
48.55
52.86
55.25
56.16
55.96
54.94
53.33
51.37
49.35
47.54
46.14
45.19
44.56
44.02
43.27
42.09
40.33
37.96
35.00
31.49
27.43
22.77
17.47
11.58
5.27
-1.09
-7.11
-12.50
-17.20
-21.45
-25.71
-30.54
-36.45
-43.75
-52.34
-61.57
-70.17
-76.38
-78.42
-75.05
-65.99
-52.19
-35.44
-17.89
-1.39
12.92
24.67
34.00
41.24
46.66
50.37
52.46
53.06
52.41
50.82
48.58
45.97
43.19
40.47
38.01
35.97
34.41
33.17
31.98
30.46
28.36
25.62
22.34
18.71
14.83
10.63
5.87
0.39
-5.80
-12.45
-19.09
-25.24
-30.58
-35.10
-39.08
-43.07
-47.67
-53.47
-60.81
-69.57
-79.04
-87.83
-94.11
-96.09
-92.63
-83.64
-70.24
-54.34
-38.05
-23.04
-10.23
0.27
8.74
15.58
20.99
24.95
27.39
28.35
28.11
27.17
26.12
25.41
25.25
25.61
26.39
27.54
29.18
31.46
34.43
37.79
40.94
43.10
43.69
42.53
39.90
36.49
33.00
29.90
27.32
24.95
22.32
18.91
14.46
9.04
3.06
-2.90
-8.31
-12.91
-16.81
-20.44
-24.38
-29.23
-35.40
-42.93
-51.37
-59.71
-66.44
-69.90
-68.67
-62.15
-50.79
-35.99
-19.70
-3.83
10.29
22.07
31.55
39.11
45.13
49.79
53.07
54.85
55.14
54.12
52.21
49.95
47.78
45.95
44.41
42.94
41.24
39.12
36.57
33.73
30.77
27.80
24.74
21.39
17.47
12.81
7.41
1.55
-4.33
-9.77
-14.45
-18.34
-21.66
-24.81
-28.19
-32.07
-36.51
-41.41
-46.54
-51.65
-56.50
-60.91
-64.83
-68.38
-71.88
-75.82
-80.74
-86.95
-94.28
-101.84
-108.08
-111.14
-109.38
-102.03
-89.44
-73.06
-55.01
-37.40
-21.79
-8.93
1.17
9.01
15.22
20.32
24.71
28.61
32.08
35.16
37.79
39.93
41.60
42.93
44.07
45.19
46.39
47.69
49.04
50.37
51.57
52.51
52.98
52.71
51.43
49.01
45.55
41.37
36.86
32.37
27.96
23.44
18.48
12.82
6.46
-0.26
-6.73
-12.29
-16.50
-19.28
-21.02
-22.40
-24.28
-27.40
-32.22
-38.59
-45.63
-51.78
-55.17
-54.13
-47.90
-36.97
-23.01
-8.30
5.01
15.52
22.79
27.16
29.26
29.64
28.61
26.31
22.91
18.70
14.14
9.65
5.57
2.09
-0.76
-2.99
-4.62
-5.72
-6.36
-6.74
-7.09
-7.66
-8.59
-9.83
-11.20
-12.45
-13.41
-14.02
-14.31
-14.40
-14.38
-14.33
-14.32
-14.48
-14.88
-15.61
-16.69
-18.18
-20.28
-23.37
-27.92
-34.24
-42.12
-50.57
-57.90
-62.11
-61.58
-55.64
-44.87
-30.90
-15.85
-1.62
10.58
20.34
27.89
33.70
38.14
41.40
43.54
44.68
45.04
44.93
44.59
44.08
43.31
42.10
40.38
38.30
36.23
34.55
33.50
32.96
32.46
31.36
29.10
25.48
20.73
15.44
10.31
5.76
1.81
-1.96
-6.16
-11.22
-17.17
-23.55
-29.63
-34.78
-38.75
-41.84
-44.74
-48.36
-53.45
-60.33
-68.68
-77.45
-85.02
-89.55
-89.46
-83.96
-73.29
-58.70
-42.04
-25.16
-9.55
4.00
15.27
24.40
31.64
37.20
41.24
43.94
45.50
46.16
46.05
45.21
43.61
41.27
38.34
35.20
32.37
30.35
29.40
29.43
29.95
30.20
29.47
27.28
23.63
18.89
13.73
8.74
4.33
0.48
-3.15
-6.98
-11.38
-16.40
-21.79
-27.13
-31.96
-36.05
-39.48
-42.70
-46.46
-51.57
-58.65
-67.76
-78.16
-88.29
-96.05
-99.36
-96.83
-88.22
-74.61
-57.99
-40.63
-24.48
-10.69
0.42
9.11
15.85
21.09
25.05
27.76
29.18
29.25
28.09
25.94
23.28
20.66
18.64
17.68
17.99
19.48
21.84
24.56
27.09
29.01
30.08
30.29
29.76
28.64
26.96
24.66
21.62
17.81
13.42
8.81
4.40
0.46
-3.01
-6.30
-9.85
-14.11
-19.43
-26.02
-33.81
-42.32
-50.53
-56.90
-59.67
-57.37
-49.38
-36.27
-19.66
-1.78
15.30
30.13
42.18
51.60
58.84
64.34
68.26
70.58
71.21
70.21
67.87
64.65
61.00
57.22
53.36
49.25
44.71
39.71
34.40
29.16
24.34
20.17
16.61
13.35
9.96
5.99
1.20
-4.36
-10.36
-16.29
-21.65
-26.15
-29.85
-33.11
-36.52
-40.70
-46.19
-53.30
-61.97
-71.65
-81.10
-88.54
-92.02
-89.96
-81.74
-67.97
-50.39
-31.24
-12.68
3.86
17.81
29.29
38.70
46.40
52.54
57.13
60.22
61.97
62.66
62.58
61.90
60.70
59.04
57.06
55.10
53.54
52.68
52.51
52.66
52.57
51.72
49.81
46.92
43.37
39.46
35.32
30.80
25.65
19.65
12.89
5.71
-1.36
-7.82
-13.47
-18.50
-23.41
-28.90
-35.60
-43.85
-53.51
-63.75
-73.12
-79.74
-81.74
-77.89
-67.99
-53.05
-34.94
-15.77
2.76
19.76
35.17
49.36
62.65
74.96
85.73
94.15
99.55
101.70
100.92
97.95
93.67
88.80
83.75
78.64
73.48
68.34
63.46
59.10
55.32
51.84
48.04
43.21
36.90
29.23
20.89
12.90
6.17
1.12
-2.53
-5.56
-8.93
-13.29
-18.76
-24.90
-31.00
-36.44
-40.90
-44.52
-47.78
-51.31
-55.65
-61.18
-67.92
-75.38
-82.44
-87.44
-88.55
-84.30
-74.19
-59.04
-40.78
-21.83
-4.37
10.24
21.66
30.25
36.65
41.36
44.62
46.39
46.66
45.56
43.33
40.31
36.72
32.67
28.19
23.40
18.58
14.19
10.72
8.39
7.07
6.23
5.16
3.29
0.42
-3.27
-7.34
-11.29
-14.80
-17.80
-20.47
-23.12
-26.04
-29.41
-33.18
-37.09
-40.75
-43.83
-46.16
-47.86
-49.38
-51.34
-54.44
-59.09
-65.23
-72.05
-78.04
-81.22
-79.77
-72.67
-60.14
-43.67
-25.60
-8.34
6.36
17.79
26.18
32.27
36.78
40.06
42.02
42.41
41.14
38.45
34.91
31.22
27.98
25.56
24.01
23.22
23.02
23.23
23.67
24.11
24.27
23.90
22.84
21.06
18.59
15.43
11.59
7.02
1.77
-3.94
-9.80
-15.45
-20.68
-25.49
-30.08
-34.76
-39.87
-45.68
-52.40
-60.01
-68.06
-75.54
-80.89
-82.37
-78.70
-69.60
-56.03
-39.92
-23.52
-8.63
3.83
13.86
21.96
28.66
34.21
38.57
41.54
43.04
43.13
42.04
40.05
37.41
34.40
31.28
28.41
26.06
24.46
23.60
23.26
23.06
22.57
21.40
19.33
16.32
12.54
8.24
3.66
-1.07
-6.03
-11.39
-17.34
-23.91
-30.84
-37.70
-44.04
-49.58
-54.40
-58.93
-63.82
-69.77
-77.20
-86.00
-95.30
-103.48
-108.41
-108.07
-101.21
-87.85
-69.41
-48.23
-26.86
-7.31
9.43
23.33
34.96
44.91
53.49
60.55
65.71
68.66
69.32
68.01
65.28
61.79
58.04
54.38
50.95
47.84
45.16
43.04
41.55
40.58
39.77
38.64
36.68
33.60
29.38
24.31
18.89
13.68
9.14
5.52
2.72
0.32
-2.28
-5.67
-10.13
-15.52
-21.38
-27.03
-31.96
-35.98
-39.32
-42.50
-46.20
-51.10
-57.64
-65.93
-75.40
-84.76
-92.01
-94.91
-91.69
-81.74
-65.93
-46.46
-26.10
-7.33
8.36
20.58
29.81
36.84
42.24
46.18
48.57
49.27
48.41
46.37
43.66
40.70
37.64
34.39
30.82
26.99
23.22
20.01
17.74
16.44
15.63
14.54
12.36
8.64
3.47
-2.57
-8.63
-14.00
-18.32
-21.78
-24.98
-28.66
-33.37
-39.12
-45.38
-51.27
-55.93
-58.85
-60.15
-60.43
-60.63
-61.68
-64.29
-68.74
-74.77
-81.42
-87.11
-89.81
-87.55
-79.09
-64.38
-44.71
-22.36
0.10
20.48
37.47
50.70
60.44
67.21
71.48
73.61
73.88
72.61
70.24
67.23
64.03
60.98
58.27
56.04
54.34
53.17
52.52
52.25
52.06
51.55
50.33
48.12
44.89
40.84
36.24
31.33
26.20
20.78
14.95
8.71
2.22
-4.21
-10.26
-15.82
-21.03
-26.33
-32.31
-39.59
-48.57
-59.25
-70.94
-82.22
-91.01
-95.07
-92.71
-83.39
-68.02
-48.77
-28.34
-9.13
7.34
20.66
31.19
39.53
46.12
51.06
54.26
55.70
55.62
54.51
52.93
51.32
49.89
48.62
47.48
46.50
45.88
45.82
46.36
47.22
47.88
47.71
46.29
43.55
39.77
35.45
31.03
26.69
22.30
17.55
12.15
6.03
-0.56
-7.19
-13.40
-18.89
-23.70
-28.19
-33.04
-39.05
-46.92
-56.92
-68.56
-80.35
-90.03
-95.10
-93.58
-84.82
-69.74
-50.61
-30.24
-11.13
5.21
18.36
28.64
36.70
42.99
47.64
50.58
51.77
51.37
49.74
47.39
44.74
42.03
39.38
36.81
34.41
32.37
30.93
30.25
30.25
30.57
30.63
29.77
27.45
23.45
17.95
11.53
4.97
-0.98
-5.93
-9.97
-13.69
-17.87
-23.12
-29.62
-36.98
-44.42
-51.16
-56.77
-61.35
-65.51
-70.11
-75.99
-83.75
-93.47
-104.54
-115.47
-124.06
-127.83
-124.69
-113.74
-95.64
-72.53
-47.37
-23.01
-1.48
16.32
30.46
41.51
50.09
56.67
61.49
64.68
66.39
66.84
66.35
65.28
63.98
62.62
61.26
59.81
58.24
56.62
55.15
54.10
53.57
53.32
52.81
51.33
48.26
43.39
36.97
29.70
22.48
16.04
10.69
6.22
2.00
-2.73
-8.44
-15.11
-22.29
-29.22
-35.30
-40.30
-44.47
-48.41
-52.85
-58.51
-65.84
-74.92
-85.23
-95.47
-103.65
-107.47
-104.99
-95.31
-78.97
-57.88
-34.64
-11.81
8.77
26.21
40.41
51.65
60.26
66.46
70.38
72.23
72.29
71.00
68.84
66.25
63.66
61.39
59.74
58.86
58.75
59.13
59.55
59.44
58.31
55.90
52.26
47.70
42.63
37.41
32.18
26.82
21.12
14.84
7.91
0.50
-7.04
-14.29
-20.90
-26.77
-32.15
-37.62
-44.00
-52.05
-62.15
-73.84
-85.75
-95.63
-100.95
-99.67
-90.93
-75.45
-55.26
-33.13
-11.67
7.27
22.81
34.93
44.04
50.68
55.29
58.30
60.12
61.18
61.80
62.17
62.27
62.04
61.43
60.52
59.55
58.73
58.19
57.76
57.05
55.57
52.84
48.70
43.25
36.90
30.15
23.41
16.82
10.26
3.39
-4.04
-12.03
-20.29
-28.30
-35.59
-41.97
-47.64
-53.18
-59.33
-66.82
-76.08
-86.96
-98.51
-109.00
-116.17
-117.77
-112.31
-99.60
-80.94
-58.73
-35.71
-14.24
4.32
19.60
32.00
42.15
50.56
57.48
62.88
66.67
68.78
69.30
68.44
66.45
63.62
60.25
56.61
53.11
50.11
47.86
46.38
45.33
44.09
41.94
38.31
33.04
26.36
18.92
11.41
4.37
-2.01
-7.97
-13.93
-20.27
-27.10
-34.22
-41.21
-47.67
-53.38
-58.50
-63.44
-68.77
-75.13
-82.94
-92.18
-102.13
-111.20
-117.17
-117.75
-111.30
-97.55
-77.72
-54.27
-30.04
-7.54
11.67
27.03
38.69
47.14
52.90
56.39
57.94
57.88
56.60
54.54
52.14
49.81
47.89
46.57
45.86
45.63
45.59
45.44
44.92
43.90
42.36
40.34
37.81
34.72
30.93
26.36
20.97
14.85
8.14
1.03
-6.31
-13.66
-20.84
-27.62
-33.88
-39.66
-45.29
-51.39
-58.73
-67.89
-78.78
-90.35
-100.52
-106.65
-106.32
-98.23
-82.79
-61.97
-38.72
-15.93
4.36
21.42
35.49
47.28
57.35
65.83
72.42
76.74
78.63
78.40
76.78
74.68
72.84
71.63
71.01
70.57
69.90
68.75
67.10
65.16
63.08
60.81
58.06
54.40
49.41
42.92
35.12
26.45
17.54
8.93
0.93
-6.44
-13.37
-20.18
-27.18
-34.69
-43.03
-52.43
-62.94
-74.09
-84.68
-92.85
-96.49
-93.92
-84.57
-69.26
-50.00
-29.32
-9.43
8.29
23.41
36.22
47.16
56.51
64.20
69.95
73.56
75.05
74.79
73.31
71.16
68.76
66.31
63.88
61.57
59.58
58.18
57.53
57.53
57.68
57.19
55.30
51.60
46.20
39.71
32.94
26.59
20.90
15.69
10.44
4.65
-1.96
-9.33
-17.13
-24.84
-32.00
-38.34
-43.88
-49.01
-54.46
-61.15
-69.80
-80.54
-92.45
-103.56
-111.23
-112.96
-107.33
-94.51
-76.22
-55.10
-33.77
-14.15
2.91
17.40
29.67
40.10
48.77
55.67
60.74
64.08
65.93
66.61
66.38
65.43
63.84
61.70
59.21
56.67
54.45
52.89
52.08
51.80
51.55
50.78
49.02
46.13
42.29
37.84
33.12
28.30
23.35
18.19
12.80
7.33
2.00
-2.98
-7.65
-12.26
-17.20
-22.77
-28.98
-35.50
-41.80
-47.40
-52.13
-56.27
-60.46
-65.53
-72.15
-80.54
-90.17
-99.76
-107.38
-110.97
-108.92
-100.64
-86.79
-69.11
-49.90
-31.29
-14.68
-0.58
11.19
21.03
29.26
35.93
40.92
44.23
46.06
46.79
46.85
46.49
45.76
44.53
42.74
40.53
38.29
36.52
35.59
35.56
36.10
36.59
36.38
35.03
32.45
28.97
25.14
21.56
18.61
16.33
14.43
12.39
9.75
6.35
2.39
-1.61
-5.10
-7.74
-9.61
-11.17
-13.06
-15.80
-19.59
-24.23
-29.22
-34.00
-38.19
-41.69
-44.69
-47.62
-51.01
-55.42
-61.23
-68.48
-76.62
-84.41
-90.06
-91.69
-87.92
-78.45
-64.21
-47.16
-29.60
-13.52
-0.07
10.50
18.57
24.75
29.52
33.16
35.71
37.24
37.83
37.71
37.16
36.41
35.62
34.85
34.11
33.47
33.00
32.81
32.95
33.33
33.76
33.94
33.57
32.39
30.24
27.12
23.25
19.05
15.07
11.85
9.66
8.42
7.66
6.74
5.13
2.65
-0.46
-3.66
-6.42
-8.45
-9.91
-11.31
-13.42
-16.96
-22.42
-29.86
-38.72
-47.79
-55.36
-59.59
-58.98
-52.99
-42.21
-28.28
-13.34
0.63
12.34
21.37
28.04
32.92
36.59
39.28
41.05
41.85
41.75
40.96
39.75
38.39
37.00
35.55
33.95
32.19
30.40
28.86
27.81
27.36
27.36
27.33
26.72
24.98
21.89
17.53
12.34
6.92
1.87
-2.44
-5.96
-8.97
-11.93
-15.27
-19.20
-23.63
-28.27
-32.70
-36.62
-39.90
-42.67
-45.24
-48.05
-51.64
-56.48
-62.79
-70.27
-77.93
-84.16
-87.06
-85.04
-77.42
-64.71
-48.56
-31.14
-14.54
-0.21
11.28
20.06
26.59
31.36
34.70
36.80
37.79
37.89
37.35
36.43
35.28
33.93
32.38
30.63
28.79
27.01
25.47
24.33
23.59
23.15
22.83
22.34
21.40
19.71
17.11
13.60
9.37
4.85
0.48
-3.37
-6.59
-9.33
-11.96
-14.84
-18.23
-22.13
-26.32
-30.47
-34.32
-37.72
-40.73
-43.56
-46.51
-49.95
-54.28
-59.95
-67.17
-75.66
-84.39
-91.52
-94.90
-92.78
-84.53
-71.06
-54.49
-37.46
-22.14
-9.72
-0.24
6.95
12.60
17.08
20.42
22.43
23.12
22.81
22.08
21.57
21.65
22.30
23.17
23.81
23.89
23.36
22.52
21.79
21.53
21.77
22.20
22.25
21.35
19.09
15.50
10.96
6.13
1.63
-2.11
-5.04
-7.49
-9.95
-12.88
-16.53
-20.78
-25.23
-29.37
-32.82
-35.51
-37.74
-40.07
-43.11
-47.39
-53.16
-60.35
-68.47
-76.53
-83.10
-86.57
-85.49
-79.11
-67.65
-52.35
-35.13
-18.04
-2.69
10.04
19.98
27.42
32.82
36.60
39.07
40.45
40.90
40.59
39.70
38.41
37.01
35.79
35.07
35.01
35.61
36.59
37.52
37.95
37.58
36.33
34.33
31.84
29.03
25.98
22.58
18.69
14.14
8.92
3.23
-2.60
-8.12
-13.00
-17.13
-20.76
-24.44
-28.92
-34.90
-42.72
-52.17
-62.30
-71.54
-78.02
-80.01
-76.51
-67.50
-54.05
-37.93
-21.18
-5.50
8.11
19.33
28.43
35.79
41.74
46.38
49.62
51.35
51.62
50.73
49.13
47.31
45.65
44.33
43.37
42.68
42.14
41.65
41.05
40.18
38.81
36.77
33.95
30.35
26.04
21.07
15.50
9.32
2.58
-4.53
-11.74
-18.69
-25.15
-31.10
-36.85
-42.97
-50.15
-58.93
-69.40
-80.90
-91.96
-100.47
-104.18
-101.50
-92.01
-76.69
-57.62
-37.26
-17.70
-0.13
15.15
28.37
39.84
49.67
57.67
63.62
67.44
69.36
69.81
69.22
67.94
66.09
63.73
60.99
58.19
55.80
54.24
53.60
53.57
53.39
52.16
49.20
44.37
38.10
31.23
24.61
18.78
13.71
8.89
3.63
-2.61
-9.96
-18.11
-26.48
-34.46
-41.73
-48.33
-54.62
-61.21
-68.70
-77.58
-87.98
-99.36
-110.43
-119.19
-123.36
-121.08
-111.58
-95.54
-74.91
-52.28
-30.11
-10.10
7.04
21.42
33.51
43.79
52.52
59.64
65.01
68.46
70.00
69.86
68.43
66.20
63.59
60.85
58.19
55.73
53.63
52.09
51.21
50.91
50.81
50.34
48.83
45.83
41.23
35.34
28.84
22.43
16.66
11.67
7.19
2.67
-2.42
-8.37
-15.11
-22.22
-29.20
-35.59
-41.19
-46.12
-50.76
-55.75
-61.81
-69.52
-79.06
-89.90
-100.63
-109.12
-112.99
-110.43
-100.79
-84.96
-65.06
-43.69
-23.15
-4.73
11.25
25.19
37.58
48.57
57.87
65.04
69.73
72.08
72.60
71.98
70.80
69.32
67.54
65.43
63.15
61.04
59.52
58.84
58.81
58.81
58.02
55.71
51.60
45.94
39.38
32.75
26.66
21.40
16.78
12.46
8.04
3.38
-1.38
-5.85
-9.69
-12.80
-15.46
-18.31
-22.16
-27.78
-35.57
-45.27
-55.91
-65.79
-72.84
-75.13
-71.43
-61.65
-46.86
-29.02
-10.34
7.32
22.82
35.85
46.63
55.57
62.96
68.85
73.18
75.96
77.35
77.68
77.33
76.54
75.41
73.96
72.26
70.50
68.94
67.70
66.64
65.32
63.14
59.62
54.58
48.26
41.20
33.99
27.06
20.55
14.34
8.13
1.64
-5.27
-12.51
