1603283083.00
64.000000
-0.00
-0.00
-0.00
-0.00
-0.00
-0.00
-0.00
-0.00
-0.00
-0.00
0.00
0.01
0.01
-0.00
-0.03
-0.05
-0.05
0.00
0.13
0.36
0.66
1.01
1.37
1.72
2.06
2.40
2.79
3.24
3.80
4.42
5.06
5.66
6.20
6.68
7.15
7.68
8.31
9.14
10.09
11.04
11.88
12.56
13.14
13.76
14.65
15.96
17.91
20.32
22.90
25.38
27.58
29.57
31.68
34.32
37.81
42.54
48.15
54.10
59.83
64.97
69.58
74.14
79.34
85.71
93.76
103.00
112.62
121.73
129.77
136.75
143.30
150.75
157.77
166.64
177.95
191.79
206.97
220.57
228.25
225.36
208.53
176.87
132.76
80.05
23.07
-34.94
-92.44
-149.16
-205.23
-260.37
-313.74
-363.87
-409.83
-450.91
-486.50
-515.74
-537.23
-549.22
-549.96
-538.37
-514.21
-478.68
-433.89
-382.45
-327.01
-269.82
-212.60
-156.63
-102.96
-52.45
-6.08
35.30
71.07
100.96
125.11
144.00
158.33
168.75
175.89
180.15
181.86
181.29
178.71
174.49
168.97
162.51
155.41
147.88
140.11
132.24
124.40
116.69
109.14
101.74
94.40
87.06
79.69
72.41
65.40
58.91
53.07
47.87
43.07
38.37
33.48
28.29
22.99
17.97
13.66
10.33
7.92
6.01
4.02
1.43
-1.90
-5.69
-9.31
-12.11
-13.70
-14.17
-14.04
-14.04
-14.76
-16.59
-19.60
-23.61
-28.02
-31.74
-33.16
-30.63
-23.18
-11.16
3.53
17.97
29.33
36.04
38.33
37.94
36.96
36.74
37.29
37.56
36.38
33.29
28.87
24.36
20.90
18.87
17.76
16.60
14.61
11.72
8.54
5.99
4.64
4.49
4.94
5.20
4.70
3.25
1.16
-1.07
-2.89
-3.91
-3.93
-2.96
-1.19
1.07
3.45
5.62
7.36
8.57
9.28
9.53
9.37
8.79
7.78
6.40
4.82
3.32
2.20
1.72
1.96
2.86
4.18
5.67
7.08
8.34
9.45
10.50
11.58
12.66
13.61
14.18
14.13
13.33
11.80
9.69
7.30
4.69
1.92
-1.02
-4.08
-7.18
-10.12
-12.74
-14.93
-16.66
-17.99
-18.90
-19.32
-19.23
-18.65
-17.74
-16.74
-15.84
-15.18
-14.80
-14.67
-14.70
-14.70
-14.41
-13.43
-11.39
-8.14
-3.88
0.83
5.24
8.63
10.58
11.08
10.49
9.33
8.11
7.13
6.42
5.87
5.27
4.49
3.53
2.53
1.66
1.08
0.82
0.83
1.00
1.19
1.22
0.85
-0.09
-1.66
-3.66
-5.57
-6.69
-6.40
-4.47
-1.22
2.53
5.81
7.83
8.27
7.31
5.39
3.10
0.92
-0.96
-2.63
-4.32
-6.27
-8.60
-11.25
-14.01
-16.56
-18.47
-19.33
-18.74
-16.43
-12.35
-6.75
-0.12
6.81
13.31
18.74
22.73
25.18
26.30
26.41
25.88
24.96
23.81
22.51
21.15
19.82
18.67
17.82
17.32
17.09
16.97
16.75
16.30
15.61
14.74
13.78
12.77
11.63
10.21
8.37
6.07
3.43
0.71
-1.81
-3.94
-5.61
-6.94
-8.16
-9.53
-11.29
-13.63
-16.59
-20.02
-23.53
-26.51
-28.24
-28.13
-25.86
-21.54
-15.70
-9.09
-2.50
3.49
8.61
12.76
16.01
18.42
20.06
21.01
21.43
21.58
21.71
22.02
22.60
23.44
24.46
25.62
26.86
28.12
29.28
30.21
30.82
31.13
31.29
31.54
32.10
33.09
34.46
36.11
37.89
39.75
41.71
43.89
46.41
49.36
52.74
56.40
60.00
62.99
64.69
64.33
61.32
55.52
47.38
37.94
28.66
21.02
16.02
14.02
14.63
16.98
19.99
22.65
24.09
23.63
20.79
15.39
7.63
-1.89
-12.21
-22.26
-31.14
-38.33
-43.86
-48.19
-52.02
-55.91
-60.07
-64.21
-67.67
-69.65
-69.55
-67.18
-62.75
-56.80
-49.96
-42.81
-35.83
-29.37
-23.61
-18.58
-14.09
-9.85
-5.57
-1.17
3.15
6.89
9.43
10.23
8.97
5.63
0.51
-5.97
-13.31
-21.08
-28.92
-36.50
-43.48
-49.50
-54.30
-57.78
-60.16
-61.92
-63.69
-66.08
-69.51
-74.22
-80.21
-87.38
-95.43
-103.78
-111.49
-117.35
-120.10
-118.85
-113.33
-104.04
-92.02
-78.60
-65.04
-52.41
-41.42
-32.48
-25.71
-20.94
-17.77
-15.64
-13.97
-12.29
-10.32
-7.94
-5.17
-2.12
1.09
4.35
7.53
10.52
13.28
15.74
17.89
19.70
21.14
22.14
22.64
22.64
22.22
21.50
20.69
19.92
19.25
18.57
17.74
16.61
15.15
13.48
11.77
10.14
8.55
6.82
4.73
2.17
-0.79
-3.92
-6.93
-9.68
-12.15
-14.48
-16.89
-19.59
-22.71
-26.35
-30.57
-35.24
-40.04
-44.34
-47.29
-48.04
-46.03
-41.20
-34.05
-25.48
-16.47
-7.82
0.02
6.91
12.90
18.07
22.44
26.02
28.80
30.85
32.28
33.25
33.91
34.40
34.82
35.27
35.80
36.38
36.96
37.45
37.77
37.87
37.72
37.32
36.72
35.94
35.03
33.96
32.68
31.10
29.11
26.70
23.96
21.07
18.32
15.94
14.09
12.74
11.64
10.39
8.55
5.79
2.06
-2.39
-7.04
-11.35
-14.96
-17.82
-20.20
-22.55
-25.35
-28.96
-33.45
-38.60
-43.81
-48.23
-50.86
-50.85
-47.78
-41.82
-33.65
-24.29
-14.72
-5.65
2.53
9.73
15.94
21.15
25.33
28.42
30.44
31.49
31.75
31.48
30.95
30.40
29.95
29.57
29.14
28.55
27.74
26.77
25.78
24.82
23.84
22.63
20.90
18.46
15.31
11.68
7.91
4.32
1.06
-1.97
-5.00
-8.35
-12.24
-16.70
-21.50
-26.20
-30.15
-32.65
-33.09
-31.12
-26.72
-20.29
-12.50
-4.18
3.95
11.37
17.80
23.13
27.33
30.35
32.20
32.94
32.76
31.99
30.96
29.98
29.25
28.81
28.64
28.65
28.72
28.67
28.34
27.63
26.48
24.96
23.19
21.27
19.27
17.13
14.79
12.18
9.29
6.15
2.86
-0.52
-3.98
-7.54
-11.27
-15.27
-19.64
-24.34
-29.10
-33.41
-36.51
-37.67
-36.37
-32.51
-26.43
-18.82
-10.47
-2.11
5.73
12.66
18.40
22.80
25.75
27.30
27.58
26.88
25.53
23.93
22.47
21.46
21.01
21.06
21.34
21.54
21.47
21.14
20.70
20.35
20.09
19.71
18.81
17.03
14.26
10.74
6.92
3.28
0.16
-2.39
-4.54
-6.54
-8.68
-11.19
-14.25
-17.92
-22.04
-26.19
-29.64
-31.50
-31.02
-27.84
-22.18
-14.77
-6.62
1.30
8.31
14.08
18.58
21.85
23.99
25.12
25.36
24.97
24.22
23.36
22.53
21.74
20.95
20.20
19.58
19.25
19.24
19.44
19.54
19.24
18.36
16.93
15.14
13.25
11.37
9.47
7.36
4.86
1.95
-1.25
-4.50
-7.55
-10.24
-12.58
-14.66
-16.67
-18.85
-21.42
-24.52
-28.18
-32.16
-35.93
-38.74
-39.79
-38.47
-34.57
-28.42
-20.74
-12.47
-4.49
2.57
8.40
12.97
16.42
18.92
20.63
21.64
22.07
22.06
21.82
21.59
21.56
21.79
22.20
22.66
23.02
23.25
23.41
23.59
23.84
24.04
24.00
23.50
22.45
20.94
19.22
17.59
16.20
15.07
14.00
12.78
11.24
9.41
7.43
5.49
3.75
2.20
0.78
-0.60
-2.00
-3.40
-4.78
-6.18
-7.71
-9.47
-11.54
-13.86
-16.27
-18.55
-20.55
-22.27
-23.85
-25.54
-27.61
-30.20
-33.32
-36.73
-40.06
-42.76
-44.26
-44.02
-41.69
-37.24
-30.99
-23.55
-15.68
-8.10
-1.39
4.18
8.51
11.64
13.66
14.72
14.96
14.59
13.87
13.07
12.42
12.06
12.11
12.55
13.35
14.34
15.37
16.27
16.93
17.35
17.52
17.46
17.14
16.49
15.52
14.31
13.04
11.88
10.90
10.00
8.97
7.62
5.85
3.76
1.58
-0.48
-2.26
-3.74
-5.02
-6.29
-7.72
-9.41
-11.39
-13.56
-15.76
-17.82
-19.63
-21.22
-22.74
-24.44
-26.57
-29.31
-32.61
-36.14
-39.33
-41.43
-41.78
-39.96
-35.98
-30.27
-23.50
-16.42
-9.57
-3.28
2.31
7.12
11.04
13.96
15.86
16.80
16.97
16.64
16.05
15.42
14.90
14.62
14.64
14.93
15.39
15.87
16.31
16.70
17.07
17.44
17.70
17.66
17.13
16.04
14.50
12.78
11.14
9.76
8.63
7.63
6.56
5.31
3.87
2.30
0.71
-0.78
-2.13
-3.32
-4.41
-5.50
-6.70
-8.12
-9.81
-11.77
-13.94
-16.19
-18.40
-20.46
-22.32
-23.99
-25.58
-27.34
-29.52
-32.32
-35.70
-39.28
-42.36
-44.10
-43.78
-41.08
-36.17
-29.63
-22.23
-14.66
-7.44
-0.84
4.92
9.69
13.27
15.54
16.52
16.45
15.73
14.84
14.21
14.04
14.33
14.87
15.40
15.73
15.82
15.77
15.77
15.94
16.33
16.82
17.23
17.36
17.07
16.37
15.33
14.10
12.79
11.45
10.06
8.58
6.98
5.29
3.59
1.95
0.42
-1.00
-2.35
-3.65
-4.99
-6.45
-8.12
-10.05
-12.20
-14.43
-16.55
-18.41
-20.03
-21.54
-23.21
-25.31
-28.00
-31.28
-34.86
-38.24
-40.76
-41.73
-40.65
-37.38
-32.14
-25.46
-17.98
-10.37
-3.17
3.19
8.41
12.35
14.99
16.47
17.04
16.98
16.57
16.04
15.57
15.31
15.30
15.55
15.95
16.41
16.85
17.27
17.71
18.19
18.68
19.04
19.09
18.71
17.79
16.38
14.56
12.51
10.37
8.24
6.15
4.06
1.93
-0.27
-2.50
-4.67
-6.72
-8.61
-10.39
-12.16
-13.99
-15.95
-18.07
-20.35
-22.84
-25.61
-28.77
-32.33
-36.13
-39.69
-42.33
-43.29
-41.98
-38.24
-32.34
-24.98
-16.98
-9.09
-1.80
4.66
10.18
14.70
18.09
20.28
21.26
21.22
20.51
19.53
18.66
18.12
17.96
18.11
18.41
18.73
18.97
19.06
18.92
18.49
17.74
16.67
15.31
13.70
11.89
9.88
7.67
5.27
2.71
0.06
-2.62
-5.25
-7.78
-10.19
-12.48
-14.72
-17.04
-19.67
-22.84
-26.69
-31.13
-35.72
-39.73
-42.25
-42.49
-40.05
-35.04
-28.08
-20.09
-12.01
-4.61
1.66
6.68
10.49
13.23
14.99
15.90
16.06
15.64
14.80
13.76
12.70
11.74
10.93
10.23
9.54
8.74
7.73
6.44
4.88
3.13
1.27
-0.57
-2.28
-3.78
-4.97
-5.70
-5.85
-5.30
-4.02
-2.04
0.58
3.74
7.32
11.09
14.71
17.75
19.83
20.71
20.40
19.08
17.01
14.44
11.48
8.14
4.38
0.13
-4.67
-10.01
-15.62
-20.96
-25.20
-27.46
-27.09
-23.94
-18.42
-11.37
-3.73
3.70
10.37
16.03
20.54
23.82
25.84
26.65
26.44
25.48
24.16
22.80
21.64
20.82
20.37
20.26
20.43
20.78
21.18
21.48
21.49
21.09
20.23
18.96
17.40
15.68
13.86
11.91
9.76
7.36
4.76
2.06
-0.63
-3.25
-5.80
-8.33
-10.90
-13.55
-16.33
-19.35
-22.77
-26.72
-31.09
-35.41
-38.90
-40.56
-39.62
-35.77
-29.37
-21.29
-12.61
-4.22
3.34
9.87
15.41
19.95
23.42
25.72
26.86
27.01
26.53
25.80
25.12
24.64
24.37
24.30
24.40
24.71
25.22
25.91
26.65
27.30
27.64
27.54
26.93
25.86
24.43
22.85
21.28
19.81
18.46
17.13
15.73
14.24
12.71
11.25
9.91
8.62
7.24
5.61
3.69
1.58
-0.53
-2.48
-4.27
-6.06
-8.09
-10.50
-13.23
-16.08
-18.81
-21.26
-23.49
-25.63
-27.89
-30.45
-33.38
-36.68
-40.29
-43.98
-47.27
-49.51
-49.90
-47.85
-43.17
-36.20
-27.74
-18.75
-10.12
-2.39
4.20
9.64
14.00
17.27
19.49
20.70
21.11
21.00
20.70
20.45
20.36
20.45
20.66
20.95
21.32
21.78
22.32
22.90
23.40
23.69
23.64
23.16
22.24
20.91
19.31
17.62
15.99
14.55
13.33
12.24
11.19
10.05
8.74
7.25
5.63
3.96
2.33
0.81
-0.63
-2.11
-3.78
-5.74
-8.00
-10.40
-12.72
-14.76
-16.46
-17.95
-19.48
-21.35
-23.80
-26.93
-30.65
-34.65
-38.40
-41.19
-42.35
-41.34
-38.01
-32.57
-25.60
-17.86
-10.13
-2.99
3.13
8.09
11.91
14.70
16.61
17.79
18.33
18.38
18.11
17.77
17.61
17.77
18.24
18.86
19.37
19.61
19.53
19.27
18.97
18.75
18.55
18.24
17.67
16.76
15.59
14.32
13.10
11.99
10.92
9.78
8.43
6.79
4.90
2.92
1.01
-0.66
-2.06
-3.23
-4.37
-5.65
-7.21
-9.07
-11.14
-13.24
-15.17
-16.84
-18.26
-19.59
-21.03
-22.78
-24.99
-27.72
-30.96
-34.56
-38.21
-41.33
-43.19
-43.06
-40.47
-35.40
-28.37
-20.28
-12.10
-4.61
1.77
6.93
10.96
13.97
16.01
17.15
17.47
17.16
16.48
15.69
15.00
14.54
14.35
14.38
14.58
14.92
15.35
15.81
16.23
16.52
16.58
16.33
15.72
14.81
13.68
12.44
11.19
9.95
8.69
7.36
5.93
4.38
2.74
1.07
-0.57
-2.16
-3.75
-5.44
-7.31
-9.39
-11.60
-13.81
-15.92
-17.86
-19.69
-21.56
-23.66
-26.14
-29.09
-32.43
-35.91
-39.08
-41.30
-41.93
-40.48
-36.78
-31.10
-24.05
-16.38
-8.82
-1.87
4.16
9.17
13.13
16.03
17.88
18.72
18.68
17.96
16.89
15.75
14.85
14.38
14.41
14.86
15.57
16.30
16.82
16.98
16.70
15.96
14.79
13.30
11.59
9.79
7.94
6.04
4.01
1.74
-0.83
-3.63
-6.50
-9.22
-11.61
-13.57
-15.21
-16.81
-18.74
-21.38
-24.86
-29.02
-33.26
-36.74
-38.52
-37.93
-34.76
-29.29
-22.21
-14.38
-6.61
0.49
6.53
11.34
14.94
17.52
19.31
20.57
21.49
22.15
22.59
22.84
22.94
22.99
23.03
23.09
23.13
23.13
23.10
23.09
23.12
23.15
23.05
22.62
21.75
20.45
18.84
17.17
15.63
14.32
13.21
12.17
11.04
9.70
8.12
6.32
4.40
2.48
0.69
-0.88
-2.20
-3.37
-4.60
-6.16
-8.24
-10.85
-13.78
-16.66
-19.16
-21.17
-22.78
-24.28
-26.01
-28.23
-31.05
-34.39
-37.99
-41.35
-43.78
-44.46
-42.79
-38.54
-32.03
-24.05
-15.59
-7.52
-0.38
5.60
10.41
14.11
16.74
18.36
19.11
19.26
19.15
19.10
19.31
19.79
20.38
20.87
21.12
21.14
21.10
21.21
21.61
22.25
22.90
23.27
23.11
22.35
21.04
19.36
17.48
15.61
13.84
12.22
10.73
9.28
7.78
6.17
4.45
2.71
1.04
-0.49
-1.93
-3.38
-4.98
-6.83
-8.97
-11.35
-13.84
-16.31
-18.61
-20.75
-22.85
-25.18
-28.02
-31.52
-35.48
-39.37
-42.36
-43.57
-42.38
-38.61
-32.58
-24.99
-16.74
-8.65
-1.31
4.96
10.09
14.14
17.23
19.45
20.89
21.67
21.92
21.87
21.71
21.64
21.76
22.09
22.58
23.12
23.64
24.08
24.41
24.57
24.51
24.13
23.34
22.11
20.53
18.77
17.08
15.63
14.47
13.46
12.33
10.86
8.97
6.80
4.64
2.80
1.39
0.35
-0.58
-1.66
-3.10
-4.92
-7.01
-9.23
-11.43
-13.54
-15.54
-17.45
-19.32
-21.30
-23.60
-26.47
-29.98
-33.89
-37.59
-40.16
-40.70
-38.61
-33.91
-27.19
-19.44
-11.67
-4.60
1.43
6.41
10.49
13.71
16.04
17.43
17.91
17.71
17.16
16.62
16.30
16.22
16.29
16.38
16.47
16.58
16.80
17.18
17.66
18.13
18.43
18.44
18.09
17.33
16.21
14.80
13.18
11.47
9.77
8.15
6.61
5.15
3.73
2.30
0.78
-0.94
-2.97
-5.34
-7.97
-10.66
-13.20
-15.47
-17.47
-19.37
-21.37
-23.69
-26.48
-29.78
-33.47
-37.19
-40.35
-42.22
-42.15
-39.78
-35.17
-28.81
-21.44
-13.82
-6.61
-0.22
5.10
9.26
12.27
14.25
15.42
16.07
16.45
16.74
17.01
17.20
17.23
17.01
16.52
15.84
15.07
14.33
13.71
13.19
12.66
11.94
10.85
9.26
7.11
4.50
1.63
-1.24
-3.88
-6.19
-8.26
-10.36
-12.79
-15.78
-19.27
-22.92
-26.08
-28.00
-28.07
-25.96
-21.83
-16.23
-9.94
-3.72
1.88
6.59
10.43
13.53
16.02
17.92
19.22
19.85
19.88
19.45
18.83
18.25
17.80
17.43
16.96
16.19
15.07
13.72
12.37
11.22
10.30
9.39
8.20
6.49
4.22
1.62
-1.00
-3.38
-5.42
-7.24
-9.05
-11.04
-13.34
-16.02
-19.10
-22.45
-25.74
-28.41
-29.71
-28.96
-25.79
-20.34
-13.24
-5.44
2.04
8.37
13.08
16.13
17.76
18.42
18.53
18.41
18.21
17.99
17.72
17.45
17.24
17.21
17.42
17.86
18.45
19.07
19.64
20.09
20.45
20.70
20.87
20.87
20.62
19.98
18.87
17.31
15.50
13.71
12.22
11.20
10.59
10.18
9.62
8.64
7.15
5.26
3.24
1.38
-0.15
-1.40
-2.54
-3.79
-5.30
-7.05
-8.99
-11.02
-13.12
-15.29
-17.55
-19.84
-22.07
-24.20
-26.27
-28.46
-31.02
-34.14
-37.79
-41.62
-45.00
-47.12
-47.19
-44.71
-39.70
-32.65
-24.46
-16.12
-8.45
-1.86
3.59
8.06
11.74
14.72
16.98
18.51
19.41
19.92
20.30
20.74
21.29
21.83
22.24
22.47
22.61
22.80
23.14
23.61
24.03
24.18
23.89
23.12
21.99
20.70
19.38
18.10
16.86
15.59
14.31
13.06
11.92
10.93
10.07
9.25
8.33
7.26
6.02
4.67
3.27
1.85
0.44
-0.93
-2.18
-3.27
-4.15
-4.89
-5.66
-6.64
-7.94
-9.55
-11.31
-13.10
-14.85
-16.69
-18.87
-21.62
-25.03
-28.87
-32.63
-35.57
-37.01
-36.47
-33.91
-29.66
-24.28
-18.40
-12.50
-6.90
-1.74
2.82
6.62
9.47
11.27
12.08
12.20
12.00
11.87
12.04
12.60
13.45
14.38
15.21
15.79
16.09
16.19
16.23
16.32
16.46
16.55
16.41
15.93
15.07
13.96
12.79
11.68
10.69
9.79
8.92
8.04
7.18
6.30
5.35
4.24
2.92
1.46
0.01
-1.27
-2.32
-3.21
-4.15
-5.31
-6.77
-8.45
-10.20
-11.86
-13.32
-14.61
-15.81
-17.09
-18.62
-20.57
-23.01
-25.85
-28.76
-31.24
-32.70
-32.63
-30.76
-27.12
-22.04
-16.09
-9.86
-3.90
1.38
5.78
9.20
11.68
13.29
14.16
14.44
14.31
13.99
13.70
13.55
13.62
13.86
14.19
14.50
14.75
14.87
14.85
14.69
14.42
14.09
13.80
13.61
13.50
13.36
13.01
12.28
11.10
9.59
7.97
6.47
5.24
4.25
3.35
2.38
1.27
0.05
-1.18
-2.34
-3.40
-4.42
-5.48
-6.66
-8.00
-9.53
-11.26
-13.16
-15.18
-17.22
-19.17
-20.92
-22.47
-23.88
-25.31
-26.89
-28.74
-30.92
-33.34
-35.74
-37.64
-38.44
-37.57
-34.72
-30.01
-23.99
-17.44
-11.15
-5.60
-0.95
2.90
6.15
8.84
10.88
12.09
12.41
11.99
11.19
10.46
10.14
10.34
10.95
11.70
12.36
12.79
12.99
13.05
13.05
13.01
12.91
12.64
12.15
11.39
10.40
9.30
8.25
7.34
6.61
5.94
5.17
4.18
2.92
1.50
0.09
-1.14
-2.13
-2.97
-3.80
-4.80
-6.02
-7.42
-8.90
-10.35
-11.71
-12.96
-14.11
-15.20
-16.32
-17.57
-19.11
-21.07
-23.49
-26.18
-28.71
-30.53
-31.08
-30.04
-27.41
-23.45
-18.61
-13.31
-7.93
-2.76
1.97
6.01
9.15
11.27
12.37
12.63
12.30
11.67
10.97
10.37
9.96
9.80
9.92
10.33
10.97
11.75
12.53
13.18
13.61
13.78
13.70
13.39
12.86
12.10
11.13
9.97
8.72
7.43
6.12
4.75
3.25
1.62
-0.11
-1.83
-3.49
-5.08
-6.66
-8.31
-10.07
-11.89
-13.69
-15.38
-16.93
-18.45
-20.12
-22.15
-24.74
-27.91
-31.51
-35.11
-38.04
-39.60
-39.18
-36.47
-31.59
-25.08
-17.73
-10.42
-3.85
1.58
5.79
8.92
11.17
12.72
13.71
14.28
14.51
14.49
14.28
13.90
13.38
12.78
12.26
11.95
11.91
12.10
12.32
12.37
12.16
11.71
11.13
10.45
9.60
8.41
6.71
4.50
1.96
-0.60
-2.89
-4.78
-6.35
-7.82
-9.49
-11.58
-14.25
-17.48
-21.18
-25.07
-28.71
-31.54
-32.98
-32.53
-30.04
-25.65
-19.86
-13.31
-6.60
-0.25
5.40
10.12
13.80
16.35
17.82
18.33
18.11
17.49
16.82
16.36
16.28
16.57
17.08
17.54
17.67
17.28
16.39
15.18
13.93
12.89
12.07
11.30
10.32
8.91
6.99
4.68
2.17
-0.39
-2.93
-5.49
-8.11
-10.86
-13.77
-16.91
-20.33
-24.01
-27.70
-30.93
-33.04
-33.43
-31.80
-28.20
-23.06
-17.02
-10.72
-4.76
0.41
4.45
7.19
8.59
8.78
8.01
6.58
4.75
2.69
0.56
-1.49
-3.28
-4.67
-5.61
-6.17
-6.47
-6.62
-6.60
-6.29
-5.49
-4.06
-1.96
0.67
3.61
6.60
9.45
12.02
14.28
16.19
17.71
18.78
19.29
19.10
18.07
16.08
13.05
9.01
4.16
-1.10
-6.13
-10.14
-12.35
-12.21
-9.60
-4.87
1.27
7.90
14.24
19.74
24.19
27.62
30.10
31.71
32.47
32.45
31.75
30.65
29.47
28.54
28.02
27.88
27.96
28.07
28.06
27.90
27.69
27.50
27.35
27.17
26.80
26.11
25.04
23.69
22.24
20.88
19.71
18.72
17.74
16.63
15.29
13.77
12.20
10.69
9.26
7.80
6.22
4.50
2.76
1.22
0.06
-0.70
-1.21
-1.77
-2.67
-4.11
-6.13
-8.62
-11.38
-14.22
-16.96
-19.50
-21.79
-23.84
-25.74
-27.58
-29.52
-31.74
-34.31
-37.16
-39.86
-41.76
-42.06
-40.13
-35.76
-29.31
-21.60
-13.66
-6.36
-0.19
4.73
8.57
11.52
13.74
15.26
16.14
16.51
16.58
16.62
16.80
17.18
17.72
18.30
18.87
19.43
20.05
20.74
21.45
22.01
22.23
21.98
21.25
20.13
18.77
17.32
15.89
14.51
13.18
11.88
10.58
9.26
7.92
6.55
5.17
3.80
2.48
1.22
0.01
-1.15
-2.29
-3.43
-4.62
-5.93
-7.48
-9.35
-11.52
-13.86
-16.16
-18.22
-20.01
-21.67
-23.45
-25.54
-27.91
-30.19
-31.80
-32.14
-30.78
-27.65
-23.00
-17.33
-11.16
-4.96
0.88
6.06
10.33
13.47
15.40
16.16
16.01
15.31
14.44
13.72
13.33
13.27
13.44
13.67
13.77
13.68
13.39
13.05
12.82
12.80
13.00
13.24
13.29
12.90
12.00
10.71
9.28
7.98
7.01
6.39
5.99
5.64
5.16
4.46
3.51
2.35
1.05
-0.30
-1.62
-2.83
-3.89
-4.79
-5.58
-6.37
-7.30
-8.45
-9.86
-11.46
-13.13
-14.77
-16.34
-17.94
-19.77
-22.04
-24.81
-27.93
-30.98
-33.37
-34.53
-34.04
-31.78
-27.91
-22.85
-17.12
-11.24
-5.70
-0.86
3.03
5.89
7.76
8.84
9.41
9.72
9.98
10.29
10.70
11.20
11.78
12.39
13.00
13.55
14.00
14.29
14.42
14.38
14.19
13.88
13.46
12.95
12.35
11.66
10.88
10.02
9.06
8.05
7.01
5.96
4.87
3.70
2.40
0.94
-0.67
-2.38
-4.13
-5.86
-7.53
-9.14
-10.66
-12.10
-13.45
-14.77
-16.14
-17.68
-19.48
-21.55
-23.82
-26.15
-28.34
-30.14
-31.26
-31.36
-30.13
-27.41
-23.27
-18.06
-12.33
-6.65
-1.47
2.95
6.55
9.33
11.32
12.55
13.09
13.12
12.87
12.56
12.34
12.26
12.30
12.41
12.57
12.77
12.99
13.22
13.39
13.46
13.41
13.19
12.78
12.12
11.20
10.09
8.91
7.80
6.84
5.99
5.11
4.05
2.70
1.06
-0.76
-2.60
-4.31
-5.80
-7.08
-8.27
-9.53
-10.96
-12.57
-14.24
-15.77
-17.01
-17.98
-18.89
-20.06
-21.84
-24.42
-27.76
-31.54
-35.18
-37.93
-39.06
-38.04
-34.68
-29.24
-22.31
-14.68
-7.08
-0.08
5.97
10.96
14.90
17.89
20.06
21.53
22.36
22.59
22.26
21.46
20.33
19.09
17.88
16.77
15.72
14.64
13.48
12.28
11.11
10.04
9.03
8.03
6.97
5.80
4.57
3.32
2.08
0.78
-0.67
-2.39
-4.38
-6.57
-8.77
-10.81
-12.58
-14.09
-15.46
-16.89
-18.59
-20.72
-23.34
-26.38
-29.53
-32.35
-34.24
-34.65
-33.17
-29.79
-24.80
-18.79
-12.44
-6.31
-0.77
3.96
7.82
10.81
12.95
14.30
14.97
15.10
14.83
14.31
13.70
13.18
12.91
13.00
13.40
13.99
14.51
14.77
14.67
14.28
13.67
12.95
12.11
11.06
9.71
8.03
6.11
4.06
2.00
-0.02
-2.04
-4.15
-6.40
-8.81
-11.35
-13.99
-16.74
-19.63
-22.60
-25.42
-27.68
-28.80
-28.26
-25.76
-21.36
-15.49
-8.81
-2.02
4.29
9.74
14.16
17.49
19.77
21.10
21.62
21.55
21.13
20.61
20.17
19.90
19.82
19.85
19.91
19.89
19.74
19.44
19.05
18.63
18.23
17.87
17.49
17.03
16.42
15.65
14.73
13.72
12.70
11.72
10.81
9.97
9.16
8.28
7.25
6.03
4.64
3.19
1.81
0.58
-0.54
-1.66
-2.95
-4.50
-6.33
-8.37
-10.50
-12.63
-14.75
-16.83
-18.87
-20.81
-22.64
-24.45
-26.47
-28.97
-32.06
-35.52
-38.72
-40.77
-40.83
-38.42
-33.60
-26.98
-19.44
-11.88
-4.94
1.06
6.10
10.27
13.68
16.36
18.35
19.68
20.48
20.95
21.34
21.85
22.54
23.34
24.07
24.56
24.72
24.57
24.23
23.88
23.61
23.42
23.17
22.66
21.73
20.33
18.59
16.78
15.16
13.91
12.97
12.16
11.21
9.92
8.29
6.46
4.66
3.09
1.82
0.74
-0.32
-1.58
-3.19
-5.19
-7.53
-10.07
-12.64
-15.10
-17.31
-19.18
-20.73
-22.07
-23.42
-25.02
-27.02
-29.39
-31.82
-33.76
-34.57
-33.68
-30.80
-26.01
-19.77
-12.76
-5.74
0.67
6.08
10.35
13.52
15.72
17.06
17.67
17.70
17.32
16.74
16.19
15.88
15.92
16.29
16.87
17.51
18.06
18.44
18.68
18.86
19.03
19.19
19.25
19.08
18.61
17.84
16.88
15.86
14.89
13.97
13.00
11.87
10.51
8.89
7.08
5.18
3.30
1.53
-0.14
-1.74
-3.34
-5.03
-6.83
-8.69
-10.55
-12.37
-14.17
-16.02
-17.98
-20.07
-22.26
-24.59
-27.17
-30.13
-33.44
-36.82
-39.66
-41.19
-40.75
-38.07
-33.35
-27.19
-20.29
-13.32
-6.70
-0.73
4.47
8.80
12.21
14.72
16.37
17.26
17.56
17.49
17.27
17.07
16.98
16.93
16.83
16.63
16.38
16.24
16.36
16.76
17.32
17.78
17.90
17.56
16.81
15.84
14.87
14.04
13.41
12.88
12.27
11.42
10.20
8.63
6.86
5.09
3.46
2.02
0.65
-0.80
-2.49
-4.45
-6.60
-8.81
-10.94
-12.89
-14.62
-16.16
-17.59
-19.06
-20.74
-22.82
-25.40
-28.40
-31.48
-34.05
-35.36
-34.77
-31.92
-26.93
-20.39
-13.19
-6.22
-0.13
4.80
8.62
11.52
13.66
15.15
16.00
16.32
16.28
16.13
16.06
16.15
16.31
16.43
16.38
16.18
15.97
15.91
16.08
16.40
16.71
16.75
16.36
15.53
14.39
13.13
11.96
11.00
10.23
9.55
8.78
7.72
6.29
4.48
2.48
0.53
-1.13
-2.36
-3.24
-3.98
-4.88
-6.17
-7.89
-9.96
-12.21
-14.48
-16.66
-18.70
-20.62
-22.47
-24.39
-26.62
-29.35
-32.63
-36.22
-39.51
-41.66
-41.90
-39.78
-35.40
-29.33
-22.41
-15.44
-8.97
-3.24
1.67
5.78
9.11
11.68
13.54
14.82
15.70
16.33
16.82
17.23
17.60
17.95
18.33
18.78
19.32
19.92
20.53
21.08
21.46
21.61
21.46
21.00
20.26
19.30
18.21
17.10
16.01
14.95
13.82
12.51
10.89
8.96
6.80
4.62
2.63
0.93
-0.51
-1.87
-3.37
-5.17
-7.30
-9.66
-12.09
-14.45
-16.63
-18.57
-20.29
-21.93
-23.75
-26.05
-29.04
-32.62
-36.27
-39.09
-40.15
-38.80
-34.97
-29.18
-22.31
-15.23
-8.53
-2.49
2.83
7.41
11.17
14.02
15.93
17.01
17.50
17.66
17.66
17.56
17.34
16.99
16.60
16.34
16.42
16.96
17.90
19.01
19.93
20.35
20.11
19.26
18.02
16.64
15.28
13.98
12.69
11.33
9.88
8.38
6.81
5.15
3.32
1.31
-0.77
-2.67
-4.13
-4.99
-5.35
-5.48
-5.77
-6.49
-7.73
-9.43
-11.47
-13.83
-16.63
-19.99
-23.97
-28.36
-32.67
-36.18
-38.17
-38.06
-35.70
-31.33
-25.54
-19.09
-12.64
-6.64
-1.26
3.44
7.45
10.67
12.93
14.10
14.25
13.64
12.69
11.86
11.42
11.42
11.70
11.99
12.08
11.91
11.52
11.05
10.58
10.09
9.46
8.55
7.24
5.51
3.44
1.17
-1.20
-3.56
-5.90
-8.25
-10.72
-13.45
-16.53
-19.85
-23.09
-25.67
-26.97
-26.48
-24.00
-19.73
-14.13
-7.82
-1.39
4.68
10.06
14.49
17.81
19.97
21.10
21.45
21.32
20.97
20.63
20.37
20.22
20.17
20.18
20.21
20.23
20.23
20.23
20.26
20.35
20.43
20.39
20.06
19.31
18.10
16.54
14.82
13.20
11.82
10.72
9.78
8.80
7.61
6.18
4.58
2.99
1.57
0.39
-0.59
-1.54
-2.63
-4.00
-5.69
-7.66
-9.86
-12.21
-14.64
-17.06
-19.44
-21.74
-24.02
-26.40
-29.11
-32.37
-36.19
-40.29
-44.03
-46.56
-47.09
-45.15
-40.80
-34.52
-27.06
-19.19
-11.53
-4.46
1.75
6.96
11.05
13.97
15.79
16.69
16.95
16.90
16.80
16.82
17.06
17.53
18.16
18.92
19.76
20.63
21.45
22.10
22.42
22.28
21.63
20.52
19.11
17.58
16.08
14.66
13.25
11.80
10.22
8.52
6.77
5.08
3.56
2.27
1.14
0.03
-1.25
-2.87
-4.87
-7.16
-9.50
-11.69
-13.60
-15.31
-17.03
-19.04
-21.55
-24.64
-28.20
-31.92
-35.35
-37.93
-39.05
-38.25
-35.28
-30.27
-23.66
-16.13
-8.40
-1.07
5.46
10.99
15.43
18.74
20.95
22.11
22.35
21.91
21.08
20.21
19.57
19.28
19.33
19.57
19.84
19.99
19.93
19.68
19.26
18.70
18.03
17.19
16.16
14.88
13.35
11.61
9.72
7.81
5.97
4.26
2.65
1.01
-0.76
-2.75
-4.94
-7.20
-9.37
-11.32
-13.03
-14.61
-16.24
-18.11
-20.35
-23.01
-26.02
-29.23
-32.36
-34.98
-36.57
-36.57
-34.64
-30.75
-25.26
-18.80
-12.06
-5.60
0.29
5.50
10.02
13.77
16.65
18.50
19.28
19.11
18.29
17.21
16.19
15.46
15.08
14.98
15.06
15.22
15.39
15.52
15.52
15.30
14.73
13.75
12.37
10.68
8.80
6.79
4.69
2.47
0.12
-2.33
-4.84
-7.36
-9.87
-12.37
-14.88
-17.42
-20.04
-22.84
-25.87
-29.05
-32.03
-34.19
-34.84
-33.40
-29.75
-24.26
-17.68
-10.87
-4.49
1.09
5.82
9.76
12.97
15.44
17.13
18.00
18.15
17.74
17.01
16.24
15.61
15.18
14.89
14.62
14.26
13.82
13.38
13.05
12.84
12.57
11.97
10.76
8.81
6.24
3.36
0.60
-1.73
-3.50
-4.83
-6.00
-7.37
-9.23
-11.77
-15.05
-18.91
-22.94
-26.50
-28.78
-29.05
-26.88
-22.34
-16.01
-8.82
-1.69
4.69
10.02
14.32
17.72
20.34
22.20
23.25
23.49
23.08
22.24
21.34
20.67
20.42
20.63
21.14
21.74
22.21
22.45
22.51
22.48
22.45
22.36
22.06
21.39
20.24
18.74
17.11
15.61
14.38
13.34
12.30
11.04
9.47
7.66
5.78
4.03
2.48
1.10
-0.24
-1.65
-3.24
-5.01
-6.96
-9.07
-11.33
-13.67
-16.04
-18.34
-20.45
-22.33
-24.03
-25.67
-27.42
-29.47
-31.97
-34.98
-38.39
-41.87
-44.88
-46.69
-46.59
-44.11
-39.20
-32.26
-24.05
-15.45
-7.21
0.18
6.49
11.67
15.71
18.60
20.34
21.05
20.95
20.39
19.75
19.34
19.29
19.57
20.01
20.45
20.80
21.09
21.40
21.79
22.23
22.58
22.71
22.46
21.82
20.84
19.67
18.47
17.35
16.35
15.42
14.47
13.32
11.85
9.92
7.55
4.85
2.09
-0.43
-2.46
-3.97
-5.12
-6.22
-7.61
-9.44
-11.70
-14.15
-16.55
-18.73
-20.68
-22.47
-24.25
-26.13
-28.25
-30.70
-33.48
-36.44
-39.15
-40.98
-41.23
-39.37
-35.23
-29.09
-21.58
-13.52
-5.68
1.32
7.08
11.46
14.48
16.34
17.29
17.60
17.50
17.19
16.84
16.56
16.47
16.55
16.77
17.03
17.26
17.46
17.66
17.94
18.30
18.67
18.91
18.86
18.37
17.41
16.06
14.49
12.94
11.55
10.38
9.32
8.20
6.87
5.29
3.53
1.75
0.10
-1.37
-2.70
-4.00
-5.42
-7.02
-8.84
-10.85
-12.98
-15.11
-17.20
-19.19
-21.17
-23.27
-25.70
-28.59
-31.95
-35.55
-38.85
-41.17
-41.76
-40.07
-35.96
-29.77
-22.19
-14.14
-6.41
0.42
6.11
10.59
13.95
16.24
17.56
18.06
17.98
17.66
17.45
17.55
17.99
18.62
19.20
19.56
19.66
19.60
19.52
19.55
19.69
19.82
19.76
19.37
18.58
17.46
16.11
14.66
13.20
11.77
10.32
8.79
7.11
5.23
3.17
1.04
-0.96
-2.67
-4.03
-5.15
-6.29
-7.73
-9.58
-11.75
-13.94
-15.87
-17.44
-18.79
-20.20
-21.99
-24.30
-27.10
-30.25
-33.55
-36.78
-39.63
-41.64
-42.20
-40.76
-37.02
-31.12
-23.66
-15.55
-7.68
-0.74
4.94
9.31
12.42
14.37
15.27
15.29
14.72
13.95
13.36
13.21
13.53
14.21
15.03
15.80
16.38
16.70
16.74
16.46
15.87
14.98
13.85
12.58
11.22
9.82
8.37
6.84
5.20
3.42
1.49
-0.58
-2.78
-5.06
-7.34
-9.49
-11.45
-13.18
-14.83
-16.63
-18.88
-21.79
-25.27
-28.88
-31.87
-33.40
-32.85
-29.99
-25.13
-18.91
-12.12
-5.46
0.63
5.95
10.39
13.92
16.46
17.98
18.52
18.27
17.46
16.42
15.41
14.59
14.04
13.72
13.52
13.34
13.12
12.84
12.53
12.20
11.79
11.20
10.31
9.03
7.33
5.25
2.89
0.33
-2.38
-5.13
-7.83
-10.37
-12.67
-14.79
-16.91
-19.32
-22.28
-25.88
-29.89
-33.76
-36.69
-37.91
-36.87
-33.48
-28.11
-21.45
-14.26
-7.19
-0.64
5.19
10.21
14.40
17.70
20.07
21.51
22.12
22.03
21.44
20.58
19.65
18.85
18.27
17.92
17.74
17.61
17.44
17.12
16.61
15.88
14.92
13.73
12.36
10.83
9.17
7.41
5.53
3.47
1.20
-1.26
-3.83
-6.40
-8.83
-11.04
-13.04
-14.95
-17.01
-19.47
-22.54
-26.25
-30.38
-34.41
-37.57
-39.05
-38.22
-34.83
-29.15
-21.85
-13.84
-5.98
1.12
7.14
12.01
15.75
18.40
20.01
20.69
20.68
20.29
19.85
19.55
19.42
19.30
19.02
18.47
17.66
16.73
15.81
15.00
14.31
13.70
13.10
12.41
11.52
10.31
8.69
6.65
4.29
1.79
-0.68
-2.97
-5.08
-7.09
-9.17
-11.45
-14.06
-17.04
-20.38
-23.90
-27.25
-29.83
-30.95
-29.99
-26.63
-21.06
-13.89
-6.05
1.56
8.25
13.68
17.85
20.87
22.90
24.08
24.55
24.50
24.19
23.88
23.75
23.83
24.04
24.23
24.32
24.29
24.23
24.24
24.36
24.53
24.60
24.39
23.78
22.72
21.24
19.49
17.68
16.01
14.65
13.65
12.96
12.45
11.93
11.20
10.12
8.60
6.69
4.52
2.33
0.34
-1.28
-2.50
-3.42
-4.27
-5.32
-6.83
-8.93
-11.60
-14.68
-17.90
-20.97
-23.71
-26.12
-28.38
-30.80
-33.65
-37.09
-41.00
-45.00
-48.44
-50.55
-50.63
-48.25
-43.42
-36.55
-28.38
-19.73
-11.33
-3.68
2.90
8.30
12.46
15.47
17.42
18.54
19.07
19.27
19.40
19.64
20.13
20.88
21.80
22.70
23.40
23.79
23.88
23.76
23.55
23.30
23.00
22.55
21.89
20.98
19.83
18.50
17.05
15.52
13.97
12.38
10.76
9.05
7.26
5.46
3.79
2.42
1.40
0.62
-0.20
-1.36
-3.09
-5.39
-8.01
-10.63
-12.98
-14.95
-16.62
-18.17
-19.84
-21.83
-24.30
-27.38
-31.11
-35.28
-39.41
-42.71
-44.29
-43.43
-39.85
-33.82
-26.08
-17.62
-9.35
-1.96
4.23
9.15
12.91
15.69
17.65
18.95
19.71
20.10
20.23
20.20
20.12
20.06
20.06
20.17
20.40
20.75
21.22
21.80
22.40
22.90
23.11
22.86
22.04
20.67
18.95
17.15
15.53
14.22
13.18
12.25
11.20
9.88
8.23
6.30
4.26
2.30
0.55
-0.89
-2.04
-3.05
-4.17
-5.63
-7.55
-9.86
-12.35
-14.70
-16.69
-18.25
-19.49
-20.69
-22.15
-24.17
-26.92
-30.37
-34.27
-38.05
-41.01
-42.35
-41.52
-38.30
-32.95
-26.11
-18.60
-11.24
-4.61
0.97
5.43
8.87
11.44
13.24
14.34
14.82
14.79
14.45
14.04
13.77
13.78
14.11
14.67
15.37
16.10
16.77
17.33
17.77
18.07
18.20
18.14
17.81
17.15
16.19
15.01
13.80
12.67
11.65
10.66
9.56
8.27
6.83
5.41
4.14
3.10
2.17
1.14
-0.25
-2.18
-4.63
-7.44
-10.31
-12.95
-15.18
-16.99
-18.55
-20.12
-21.98
-24.31
-27.14
-30.37
-33.69
-36.63
-38.58
-38.94
-37.26
-33.40
-27.63
-20.58
-13.07
-5.90
0.41
5.57
9.57
12.48
14.40
15.44
15.72
15.45
14.89
14.29
13.87
13.74
13.90
14.27
14.73
15.24
15.80
16.41
17.05
17.58
17.81
17.59
16.83
15.55
13.92
12.07
10.13
8.12
6.02
3.82
1.55
-0.75
-3.01
-5.21
-7.35
-9.47
-11.59
-13.67
-15.66
-17.51
-19.22
-20.93
-22.88
-25.35
-28.52
-32.25
-36.02
-38.99
-40.32
-39.40
-36.07
-30.73
-24.08
-16.89
-9.79
-3.18
2.75
7.87
12.08
15.29
17.48
18.72
19.17
19.00
18.43
17.67
16.90
16.30
15.95
15.87
16.01
16.25
16.43
16.43
16.16
15.58
14.67
13.43
11.91
10.19
8.33
6.37
4.33
2.22
0.02
-2.24
-4.52
-6.81
-9.05
-11.23
-13.31
-15.34
-17.45
-19.83
-22.67
-26.05
-29.79
-33.38
-36.10
-37.16
-35.99
-32.43
-26.75
-19.57
-11.69
-3.87
3.29
9.34
14.08
17.51
19.77
21.10
21.77
22.03
22.03
21.89
21.71
21.60
21.65
21.90
22.33
22.81
23.22
23.47
23.59
23.62
23.58
23.45
23.09
22.40
21.30
19.87
18.26
16.67
15.25
14.07
13.06
12.09
11.03
9.76
8.25
6.54
4.70
2.84
1.09
-0.47
-1.81
-2.98
-4.12
-5.38
-6.91
-8.75
-10.89
-13.23
-15.65
-18.05
-20.33
-22.47
-24.54
-26.67
-29.08
-31.96
-35.33
-38.88
-41.96
-43.66
-43.18
-40.02
-34.24
-26.50
-17.77
-9.12
-1.38
4.98
9.88
13.46
15.97
17.65
18.61
18.96
18.80
18.36
17.90
17.71
17.92
18.50
19.23
19.84
20.17
20.23
20.14
20.06
20.02
19.90
19.57
18.90
17.91
16.76
15.63
14.69
13.94
13.23
12.32
11.00
9.22
7.09
4.85
2.79
1.11
-0.18
-1.28
-2.49
-4.09
-6.23
-8.88
-11.82
-14.82
-17.60
-20.00
-22.00
-23.70
-25.37
-27.28
-29.71
-32.73
-36.15
-39.43
-41.82
-42.56
-41.09
-37.29
-31.51
-24.43
-16.85
-9.48
-2.77
3.05
7.91
11.83
14.82
16.94
18.23
18.83
18.91
18.66
18.27
17.89
17.61
17.45
17.40
17.47
17.67
18.05
18.59
19.22
19.76
20.00
19.73
18.90
17.60
16.04
14.46
13.06
11.89
10.88
9.87
8.69
7.24
5.52
3.63
1.74
0.03
-1.41
-2.58
-3.63
-4.76
-6.20
-8.10
-10.42
-13.01
-15.65
-18.14
-20.44
-22.65
-25.04
-27.84
-31.19
-34.98
-38.82
-42.07
-43.96
-43.83
-41.26
-36.26
-29.29
-21.14
-12.75
-4.92
1.78
7.14
11.18
14.03
15.85
16.82
17.17
17.17
17.16
17.37
17.92
18.67
19.37
19.72
19.60
19.03
18.26
17.55
17.14
17.10
17.32
17.58
17.61
17.13
15.97
14.12
11.72
9.07
6.49
4.19
2.24
0.56
-1.04
-2.75
-4.67
-6.79
-9.02
-11.22
-13.29
-15.19
-16.95
-18.67
-20.54
-22.75
-25.43
-28.56
-31.86
-34.84
-36.86
-37.33
-35.82
-32.24
-26.82
-20.04
-12.56
-5.05
1.91
7.87
12.59
15.98
18.14
19.27
19.65
19.56
19.18
18.63
17.97
17.26
16.57
16.02
15.73
15.74
16.01
16.39
16.68
16.70
16.32
15.49
14.25
12.66
10.81
8.77
6.59
4.33
2.01
-0.38
-2.82
-5.33
-7.91
-10.59
-13.35
-16.17
-19.03
-21.99
-25.17
-28.69
-32.51
-36.27
-39.27
-40.66
-39.71
-36.15
-30.27
-22.84
-14.82
-7.03
-0.02
6.00
11.02
15.10
18.30
20.71
22.39
23.46
24.07
24.35
24.45
24.50
24.57
24.70
24.86
24.99
25.10
25.19
25.32
25.49
25.66
25.72
25.56
25.09
24.28
23.16
21.83
20.40
19.00
17.68
16.46
15.31
14.11
12.79
11.33
9.77
8.21
6.74
5.43
4.25
3.16
2.05
0.87
-0.42
-1.81
-3.27
-4.82
-6.48
-8.32
-10.44
-12.89
-15.66
-18.62
-21.53
-24.17
-26.40
-28.24
-29.92
-31.81
-34.28
-37.49
-41.32
-45.21
-48.30
-49.62
-48.37
-44.22
-37.40
-28.70
-19.24
-10.14
-2.26
3.99
8.60
11.91
14.32
16.15
17.62
18.77
19.64
20.24
20.68
21.04
21.38
21.68
21.89
21.97
21.97
22.02
22.28
22.78
23.37
23.78
23.71
23.00
21.74
20.21
18.76
17.62
16.84
16.26
15.63
14.74
13.44
11.74
9.69
7.45
5.17
3.05
1.23
-0.20
-1.27
-2.13
-3.04
-4.30
-6.09
-8.43
-11.14
-13.90
-16.39
-18.47
-20.19
-21.81
-23.66
-25.99
-28.85
-32.09
-35.36
-38.16
-39.91
-40.00
-37.97
-33.62
-27.20
-19.33
-10.91
-2.85
4.16
9.81
14.12
17.33
19.67
21.28
22.16
22.33
21.88
21.05
20.16
19.50
19.22
19.31
19.65
20.05
20.37
20.58
20.73
20.87
21.02
21.08
20.86
20.15
18.82
16.93
14.76
12.69
11.03
9.89
9.09
8.25
7.03
5.31
3.21
1.00
-1.06
-2.83
-4.40
-5.93
-7.55
-9.34
-11.25
-13.20
-15.11
-16.95
-18.71
-20.40
-22.05
-23.72
-25.55
-27.73
-30.46
-33.80
-37.53
-41.12
-43.73
-44.50
-42.80
-38.47
-31.93
-23.96
-15.55
-7.51
-0.37
5.64
10.50
14.23
16.91
18.59
19.42
19.59
19.35
18.96
18.62
18.46
18.50
18.64
18.79
18.86
18.79
18.64
18.47
18.36
18.29
18.16
17.82
17.17
16.19
14.99
13.74
12.56
11.51
10.53
9.51
8.31
6.89
5.26
3.51
1.78
0.23
-1.04
-1.99
-2.71
-3.40
-4.27
-5.53
-7.23
-9.29
-11.56
-13.86
-16.10
-18.29
-20.53
-22.90
-25.51
-28.41
-31.58
-34.88
-37.99
-40.38
-41.34
-40.26
-36.81
-31.15
-23.92
-16.00
-8.31
-1.48
4.17
8.62
11.99
14.43
16.02
16.87
17.15
17.05
16.84
16.71
16.77
17.00
17.30
17.51
17.61
17.60
17.62
17.80
18.20
18.71
19.12
19.15
18.63
17.55
16.09
14.49
12.98
11.67
10.53
9.48
8.39
7.21
5.90
4.50
3.06
1.64
0.29
-0.97
-2.17
-3.41
-4.83
-6.55
-8.60
-10.90
-13.27
-15.54
-17.62
-19.55
-21.47
-23.61
-26.15
-29.18
-32.64
-36.22
-39.39
-41.44
-41.66
-39.56
-35.04
-28.52
-20.78
-12.75
-5.24
1.26
6.59
10.82
14.11
16.59
18.36
19.51
20.15
20.45
20.60
20.74
20.93
21.16
21.33
21.39
21.29
21.09
20.89
20.77
20.79
20.91
21.00
20.93
20.55
19.80
18.66
17.21
15.57
13.89
12.36
11.06
10.00
9.01
7.88
6.41
4.56
2.49
0.49
-1.22
-2.56
-3.67
-4.86
-6.39
-8.38
-10.73
-13.22
-15.58
-17.65
-19.42
-21.05
-22.76
-24.79
-27.33
-30.45
-34.01
-37.64
-40.79
-42.77
-42.95
-40.92
-36.64
-30.42
-22.90
-14.89
-7.16
-0.31
5.33
9.67
12.82
14.98
16.36
17.14
17.51
17.63
17.63
17.64
17.73
17.92
18.18
18.48
18.80
19.14
19.46
19.71
19.82
19.69
19.28
18.61
17.75
16.80
15.81
14.78
13.66
12.42
11.03
9.53
7.99
6.49
5.05
3.70
2.37
0.97
-0.61
-2.47
-4.59
-6.87
-9.11
-11.12
-12.77
-14.11
-15.35
-16.76
-18.62
-21.07
-24.10
-27.53
-30.94
-33.75
-35.35
-35.19
-33.01
-28.87
-23.21
-16.66
-9.89
-3.44
2.37
7.35
11.46
14.66
16.93
18.30
18.88
18.84
18.43
17.93
17.54
17.38
17.44
17.64
17.87
18.11
18.40
18.83
19.45
20.18
20.87
21.28
21.27
20.80
19.98
19.05
18.19
17.52
16.99
16.43
15.60
14.35
12.71
10.82
8.97
7.30
5.80
4.21
2.24
-0.35
-3.55
-7.10
-10.61
-13.75
-16.38
-18.55
-20.45
-22.28
-24.19
-26.30
-28.71
-31.55
-34.79
-38.18
-41.14
-42.92
-42.79
-40.35
-35.68
-29.33
-22.15
-14.94
-8.31
-2.57
2.23
6.10
9.14
11.36
12.83
13.63
13.94
13.92
13.77
13.63
13.54
13.49
13.43
13.35
13.29
13.34
13.54
13.88
14.25
14.53
14.62
14.48
14.12
13.57
12.86
11.97
10.86
9.54
8.02
6.40
4.77
3.22
1.81
0.52
-0.73
-2.12
-3.82
-5.98
-8.56
-11.38
-14.17
-16.69
-18.82
-20.59
-22.16
-23.77
-25.64
-27.96
-30.73
-33.77
-36.67
-38.77
-39.39
-37.99
-34.36
-28.74
-21.71
-14.09
-6.65
-0.00
5.46
9.61
12.47
14.22
15.09
15.30
15.09
14.64
14.11
13.68
13.48
13.62
14.09
14.77
15.47
16.03
16.34
16.36
16.09
15.51
14.60
13.38
11.94
10.46
9.10
7.92
6.83
5.61
4.01
1.93
-0.55
-3.21
-5.81
-8.17
-10.28
-12.29
-14.38
-16.80
-19.66
-22.98
-26.57
-30.02
-32.74
-34.08
-33.51
-30.77
-26.02
-19.75
-12.72
-5.64
0.90
6.61
11.39
15.27
18.25
20.33
21.45
21.68
21.20
20.35
19.54
19.06
19.06
19.49
20.17
20.90
21.54
22.04
22.41
22.65
22.71
22.53
22.09
21.40
20.54
19.58
18.59
17.58
16.51
15.38
14.17
12.93
11.71
10.58
9.56
8.61
7.61
6.42
4.93
3.12
1.07
-1.01
-2.93
-4.57
-5.93
-7.13
-8.39
-9.88
-11.65
-13.63
-15.69
-17.66
-19.49
-21.17
-22.79
-24.48
-26.41
-28.78
-31.78
-35.46
-39.62
-43.71
-46.87
-48.18
-46.90
-42.81
-36.27
-28.15
-19.48
-11.18
-3.85
2.23
7.06
10.73
13.36
15.08
16.03
16.46
16.68
17.00
17.61
18.52
19.55
20.47
21.09
21.41
21.58
21.80
22.15
22.58
22.86
22.75
22.13
21.03
19.60
18.04
16.49
15.04
13.74
12.56
11.48
10.45
9.39
8.27
7.07
5.83
4.58
3.32
2.02
0.63
-0.86
-2.48
-4.20
-6.02
-7.98
-10.11
-12.39
-14.74
-16.96
-18.90
-20.44
-21.65
-22.78
-24.19
-26.22
-29.00
-32.33
-35.65
-38.14
-38.94
-37.49
-33.63
-27.72
-20.48
-12.74
-5.26
1.43
7.03
11.42
14.56
16.51
17.41
17.51
17.12
16.60
16.23
16.15
16.38
16.87
17.51
18.23
18.99
19.73
20.39
20.85
21.03
20.90
20.47
19.79
18.90
17.81
16.51
15.09
13.67
12.40
11.35
10.48
9.61
8.57
7.28
5.80
4.30
2.93
1.78
0.80
-0.15
-1.24
-2.60
-4.27
-6.26
-8.53
-10.95
-13.38
-15.64
-17.61
-19.23
-20.60
-21.94
-23.57
-25.81
-28.84
-32.57
-36.52
-39.92
-41.86
-41.62
-38.87
-33.84
-27.17
-19.73
-12.33
-5.51
0.47
5.59
9.89
13.42
16.19
18.18
19.45
20.13
20.41
20.50
20.59
20.74
20.98
21.29
21.62
21.97
22.31
22.62
22.85
22.94
22.83
22.48
21.84
20.92
19.72
18.33
16.84
15.35
13.93
12.61
11.34
10.04
8.67
7.17
5.55
3.80
2.01
0.26
-1.31
-2.62
-3.68
-4.68
-5.89
-7.54
-9.71
-12.25
-14.83
-17.13
-19.00
-20.53
-21.98
-23.72
-26.00
-28.93
-32.46
-36.32
-40.05
-43.02
-44.54
-44.00
-41.10
-35.97
-29.15
-21.43
-13.65
-6.48
-0.33
4.62
8.40
11.21
13.28
14.84
16.06
16.97
17.55
17.78
17.72
17.55
17.50
17.72
18.24
18.93
19.64
20.21
20.58
20.77
20.76
20.52
19.99
19.15
18.06
16.86
15.73
14.81
14.13
13.61
13.06
12.23
10.96
9.23
7.21
5.21
3.51
2.27
1.38
0.55
-0.59
-2.28
-4.55
-7.21
-9.96
-12.55
-14.86
-16.94
-18.94
-21.04
-23.39
-26.10
-29.21
-32.64
-36.15
-39.28
-41.45
-42.05
-40.60
-36.96
-31.36
-24.42
-16.93
-9.70
-3.30
1.96
6.13
9.42
12.09
14.29
16.07
17.39
18.21
18.59
18.65
18.63
18.69
18.97
19.51
20.26
21.16
22.05
22.79
23.22
23.25
22.87
22.15
21.21
20.16
19.04
17.89
16.72
15.55
14.40
13.25
12.04
10.71
9.21
7.57
5.85
4.09
2.38
0.73
-0.83
-2.29
-3.70
-5.17
-6.81
-8.77
-11.05
-13.55
-16.01
-18.21
-20.01
-21.49
-22.88
-24.54
-26.82
-29.91
-33.75
-37.98
-41.91
-44.67
-45.45
-43.74
-39.49
-33.15
-25.49
-17.42
-9.67
-2.73
3.16
7.96
11.74
14.59
16.63
18.01
18.90
19.47
19.81
19.97
19.96
19.78
19.47
19.12
18.87
18.86
19.15
19.72
20.42
21.04
21.36
21.23
20.64
19.69
18.52
17.27
16.03
14.78
13.50
12.10
10.56
8.88
7.12
5.37
3.75
2.37
1.24
0.31
-0.60
-1.71
-3.18
-5.03
-7.17
-9.38
-11.49
-13.42
-15.21
-16.96
-18.82
-20.87
-23.23
-26.00
-29.22
-32.77
-36.25
-39.01
-40.26
-39.33
-35.98
-30.47
-23.49
-15.91
-8.47
-1.64
4.39
9.57
13.87
17.22
19.54
20.87
21.42
21.49
21.39
21.33
21.39
21.52
21.64
21.74
21.87
22.10
22.47
22.93
23.34
23.55
23.43
22.93
22.07
20.93
19.59
18.11
16.56
14.98
13.38
11.77
10.09
8.30
6.34
4.25
2.14
0.12
-1.70
-3.33
-4.86
-6.44
-8.22
-10.23
-12.47
-14.81
-17.14
-19.33
-21.32
-23.12
-24.86
-26.78
-29.16
-32.25
-36.03
-40.15
-43.81
-46.05
-45.99
-43.19
-37.80
-30.50
-22.25
-13.99
-6.37
0.28
5.88
10.43
13.94
16.42
17.92
18.63
18.83
18.83
18.91
19.16
19.57
20.03
20.43
20.77
21.09
21.51
22.03
22.61
23.06
23.19
22.86
22.03
20.77
19.22
17.57
16.05
14.81
13.92
13.29
12.69
11.80
10.37
8.36
5.99
3.59
1.50
-0.16
-1.52
-2.86
-4.48
-6.54
-9.04
-11.81
-14.65
-17.41
-19.95
-22.25
-24.34
-26.39
-28.64
-31.37
-34.72
-38.55
-42.35
-45.28
-46.49
-45.33
-41.63
-35.72
-28.29
-20.17
-12.15
-4.77
1.63
6.92
11.13
14.32
16.58
18.00
18.67
18.70
18.27
17.62
16.97
16.51
16.34
16.40
16.60
16.87
17.15
17.42
17.61
17.59
17.18
16.24
14.76
12.90
10.91
9.07
7.48
6.07
4.60
2.82
0.57
-2.09
-4.97
-7.84
-10.56
-13.14
-15.69
-18.38
-21.37
-24.72
-28.30
-31.74
-34.47
-35.76
-34.99
-31.84
-26.45
-19.43
-11.65
-3.95
3.05
9.05
14.03
18.03
21.08
23.20
24.41
24.81
24.64
24.21
23.81
23.65
23.79
24.17
24.64
25.07
25.36
25.49
25.52
25.48
25.40
25.23
24.80
23.98
22.65
20.84
18.72
16.51
14.45
12.62
10.99
9.45
7.83
6.06
4.18
2.27
0.50
-1.07
-2.45
-3.77
-5.27
-7.12
-9.41
-12.06
-14.83
-17.49
-19.87
-22.02
-24.12
-26.45
-29.27
-32.74
-36.84
-41.36
-45.80
-49.49
-51.62
-51.47
-48.66
-43.27
-35.88
-27.37
-18.62
-10.34
-2.90
3.54
8.97
13.36
16.65
18.85
20.04
20.47
20.48
20.35
20.31
20.45
20.76
21.21
21.76
22.37
23.05
23.78
24.55
25.27
25.88
26.23
26.17
25.60
24.50
22.95
21.11
19.14
17.17
15.28
13.47
11.79
10.24
8.77
7.26
5.60
3.71
1.67
-0.32
-2.03
-3.33
-4.28
-5.13
-6.18
-7.65
-9.58
-11.89
-14.36
-16.82
-19.12
-21.22
-23.14
-24.94
-26.76
-28.80
-31.29
-34.35
-37.92
-41.61
-44.69
-46.29
-45.63
-42.27
-36.30
-28.31
-19.28
-10.25
-2.07
4.76
10.11
14.13
17.10
19.28
20.84
21.92
22.57
22.84
22.85
22.71
22.56
22.52
22.64
22.93
23.37
23.89
24.41
24.83
25.06
25.02
24.65
23.90
22.78
21.34
19.75
18.20
16.94
16.06
15.50
15.06
14.40
13.27
11.56
9.38
6.97
4.60
2.44
0.52
-1.25
-3.04
-5.00
-7.21
-9.69
-12.37
-15.13
-17.81
-20.29
-22.52
-24.54
-26.57
-28.90
-31.82
-35.45
-39.59
-43.67
-46.85
-48.23
-47.11
-43.26
-36.99
-29.04
-20.36
-11.83
-4.05
2.69
8.37
13.06
16.82
19.68
21.65
22.78
23.24
23.23
22.97
22.65
22.40
22.33
22.49
22.89
23.48
24.19
24.90
25.46
25.75
25.62
24.97
23.79
22.15
20.26
18.40
16.81
15.58
14.62
13.69
12.52
10.91
8.82
6.37
3.81
1.37
-0.75
-2.43
-3.72
-4.74
-5.70
-6.80
-8.16
-9.82
-11.69
-13.65
-15.60
-17.50
-19.38
-21.33
-23.45
-25.85
-28.68
-32.11
-36.21
-40.83
-45.48
-49.38
-51.58
-51.30
-48.14
-42.31
-34.49
-25.66
-16.79
-8.60
-1.53
4.32
8.98
12.62
15.38
17.39
18.79
19.73
20.37
20.88
21.38
21.90
22.37
22.68
22.77
22.65
22.47
22.39
22.53
22.83
23.10
23.08
22.61
21.66
20.36
18.90
17.42
15.96
14.48
12.90
11.16
9.24
7.20
5.10
3.07
1.24
-0.28
-1.50
-2.56
-3.70
-5.21
-7.26
-9.82
-12.68
-15.54
-18.15
-20.43
-22.46
-24.45
-26.61
-29.13
-32.11
-35.48
-39.02
-42.22
-44.41
-44.86
-43.00
-38.64
-32.07
-23.97
-15.25
-6.79
0.77
7.06
11.98
15.60
18.08
19.59
20.33
20.52
20.38
20.13
19.92
19.86
19.98
20.24
20.61
21.05
21.56
22.09
22.59
22.95
23.03
22.72
21.99
20.88
19.54
18.10
16.68
15.28
13.86
12.33
10.64
8.81
6.89
4.92
2.95
0.97
-1.03
-3.06
-5.14
-7.26
-9.42
-11.61
-13.83
-16.08
-18.36
-20.71
-23.19
-25.90
-29.03
-32.72
-36.98
-41.55
-45.88
-49.14
-50.49
-49.31
-45.39
-39.07
-31.11
-22.44
-13.91
-6.04
0.88
6.82
11.80
15.79
18.77
20.71
21.68
21.92
21.71
21.35
21.05
20.91
20.90
20.96
21.04
21.14
21.23
21.32
21.32
21.11
20.58
19.60
18.20
16.46
14.56
12.62
10.71
8.77
6.69
4.34
1.66
-1.29
-4.35
-7.37
-10.20
-12.83
-15.34
-17.92
-20.84
-24.31
-28.45
-33.09
-37.71
-41.52
-43.60
-43.19
-39.97
-34.17
-26.54
-18.07
-9.77
-2.33
3.91
8.95
12.95
16.13
18.60
20.43
21.63
22.26
22.40
22.22
21.88
21.51
21.15
20.82
20.45
20.03
19.56
19.14
18.79
18.49
18.10
17.42
16.30
14.65
12.52
10.04
7.34
4.50
1.62
-1.27
-4.10
-6.80
-9.38
-11.93
-14.58
-17.52
-20.87
-24.64
-28.65
-32.55
-35.74
-37.52
-37.22
-34.43
-29.19
-22.01
-13.73
-5.28
2.56
9.30
14.80
19.10
22.33
24.57
25.91
26.45
26.37
25.93
25.40
25.02
24.85
24.82
24.77
24.58
24.23
23.85
23.62
23.63
23.80
23.88
23.57
22.68
21.17
19.19
16.98
14.75
12.61
10.56
8.52
6.43
4.21
1.84
-0.73
-3.50
-6.48
-9.58
-12.70
-15.72
-18.57
-21.24
-23.83
-26.53
-29.57
-33.15
-37.39
-42.13
-46.93
-51.01
-53.42
-53.29
-50.17
-44.16
-35.93
-26.48
-16.83
-7.76
0.33
7.29
13.13
17.84
21.40
23.81
25.19
25.80
25.99
26.13
26.47
27.11
28.02
29.07
30.12
31.05
31.81
32.37
32.71
32.81
32.60
32.02
31.01
29.56
27.73
25.66
23.51
21.42
19.48
17.68
15.94
14.22
12.49
10.79
9.14
7.52
5.86
4.09
2.16
0.12
-1.94
-3.94
-5.88
-7.88
-10.07
-12.54
-15.28
-18.16
-20.98
-23.58
-25.91
-28.06
-30.20
-32.56
-35.36
-38.78
-42.84
-47.36
-51.78
-55.27
-56.82
-55.59
-51.16
-43.79
-34.32
-23.90
-13.66
-4.40
3.49
9.91
14.92
18.60
21.05
22.42
22.91
22.82
22.43
22.01
21.70
21.60
21.72
22.02
22.46
23.03
23.75
24.62
25.60
26.54
27.20
27.30
26.67
25.29
23.36
21.20
19.13
17.36
15.94
14.75
13.62
12.31
10.70
8.74
6.48
4.07
1.65
-0.67
-2.90
-5.10
-7.38
-9.82
-12.40
-15.06
-17.74
-20.40
-23.04
-25.69
-28.40
-31.23
-34.27
-37.66
-41.52
-45.84
-50.30
-54.18
-56.48
-56.21
-52.73
-46.07
-36.91
-26.38
-15.71
-5.86
2.67
9.74
15.46
19.94
23.21
25.30
26.30
26.44
26.11
25.69
25.45
25.49
25.70
25.92
26.06
26.15
26.32
26.70
27.31
28.02
28.64
28.91
28.69
27.90
26.57
24.81
22.76
20.56
18.35
16.18
14.11
12.12
10.19
8.29
6.41
4.52
2.62
0.67
-1.38
-3.60
-6.05
-8.77
-11.75
-14.91
-18.14
-21.27
-24.19
-26.87
-29.37
-31.87
-34.64
-37.96
-42.02
-46.76
-51.75
-56.16
-58.96
-59.14
-56.15
-50.04
-41.46
-31.48
-21.21
-11.46
-2.69
4.95
11.45
16.78
20.80
23.39
24.55
24.49
23.65
22.56
21.69
21.31
21.43
21.85
22.28
22.52
22.50
22.29
22.00
21.69
21.31
20.71
19.75
18.36
16.61
14.67
12.72
10.86
9.07
7.19
5.00
2.35
-0.79
-4.22
-7.69
-10.92
-13.75
-16.19
-18.41
-20.61
-23.01
-25.82
-29.19
-33.14
-37.42
-41.48
-44.44
-45.32
-43.43
-38.58
-31.21
-22.26
-12.82
-3.82
4.15
10.84
16.22
20.34
23.22
24.91
25.51
25.23
24.37
23.27
22.27
21.55
21.14
20.90
20.60
20.05
19.25
18.32
17.46
16.79
16.25
15.51
14.24
12.15
9.23
5.71
1.98
-1.63
-4.92
-7.92
-10.82
-13.85
-17.20
-21.00
-25.32
-30.14
-35.29
-40.30
-44.38
-46.54
-45.85
-41.90
-34.93
-25.83
-15.81
-5.96
2.97
10.70
17.21
22.51
26.57
29.33
30.88
31.50
31.62
31.67
31.90
32.33
32.84
33.22
33.37
33.30
33.16
33.06
33.05
33.01
32.76
32.08
30.90
29.30
27.48
25.66
23.99
22.49
21.02
19.46
17.71
15.81
13.84
11.87
9.93
7.97
5.94
3.82
1.63
-0.53
-2.58
-4.47
-6.21
-7.90
-9.67
-11.68
-14.03
-16.78
-19.87
-23.16
-26.43
-29.48
-32.19
-34.59
-36.87
-39.40
-42.55
-46.58
-51.45
-56.67
-61.33
-64.25
-64.35
-61.02
-54.34
-45.08
-34.39
-23.50
-13.31
-4.32
3.36
9.74
14.84
18.65
21.13
22.44
22.90
22.96
23.07
23.53
24.38
25.46
26.54
27.43
28.10
28.66
29.25
29.94
30.66
31.20
31.28
30.72
29.47
27.66
25.54
23.41
21.45
19.70
18.08
16.39
14.44
12.13
9.48
6.68
3.99
1.68
-0.12
-1.46
-2.57
-3.77
-5.35
-7.50
-10.17
-13.20
-16.30
-19.23
-21.85
-24.24
-26.62
-29.27
-32.46
-36.33
-40.74
-45.22
-49.01
-51.16
-50.84
-47.61
-41.54
-33.28
-23.78
-14.03
-4.80
3.48
10.60
16.49
21.07
24.27
26.12
26.80
26.65
26.08
25.51
25.19
25.28
25.73
26.43
27.17
27.79
28.17
28.29
28.24
28.11
27.94
27.66
27.07
25.93
24.16
21.85
19.32
16.96
15.08
13.73
12.72
11.65
10.16
8.03
5.33
2.38
-0.43
-2.78
-4.61
-6.10
-7.60
-9.44
-11.81
-14.67
-17.78
-20.81
-23.53
-25.86
-27.98
-30.13
-32.63
-35.69
-39.41
-43.71
-48.19
-52.22
-54.92
-55.40
-53.04
-47.69
-39.81
-30.28
-20.20
-10.53
-1.95
5.23
10.95
15.33
18.52
20.70
22.05
22.74
22.91
22.70
22.29
21.88
21.69
21.88
22.49
23.37
24.32
25.12
25.63
25.82
25.68
25.22
24.39
23.14
21.49
19.52
17.44
15.48
13.80
12.43
11.18
9.83
8.12
6.00
3.59
1.14
-1.08
-2.99
-4.68
-6.41
-8.40
-10.75
-13.33
-15.95
-18.41
-20.61
-22.60
-24.51
-26.48
-28.74
-31.52
-34.94
-38.92
-43.00
-46.34
-47.95
-46.99
-43.10
-36.54
-28.08
-18.70
-9.34
-0.65
7.00
13.40
18.43
22.01
24.13
24.90
24.63
23.76
22.79
22.13
22.03
22.48
23.30
24.20
24.95
25.44
25.68
25.78
25.81
25.75
25.53
25.01
24.12
22.83
21.18
19.25
17.07
14.74
12.32
9.92
7.68
5.68
3.91
2.26
0.53
-1.43
-3.71
-6.29
-9.08
-11.94
-14.73
-17.34
-19.73
-21.88
-23.86
-25.81
-27.95
-30.54
-33.80
-37.82
-42.42
-47.08
-50.99
-53.21
-52.93
-49.73
-43.72
-35.52
-26.09
-16.45
-7.42
0.49
7.09
12.38
16.49
19.56
21.70
23.09
23.88
24.28
24.45
24.47
24.34
24.03
23.55
22.98
22.49
22.22
22.20
22.30
22.30
21.94
21.03
19.53
17.46
14.95
12.13
9.11
6.00
2.87
-0.20
-3.20
-6.06
-8.72
-11.11
-13.20
-15.05
-16.87
-18.96
-21.65
-25.16
-29.45
-34.14
-38.56
-41.81
-43.00
-41.50
-37.15
-30.33
-21.86
-12.77
-4.04
3.67
10.06
15.11
18.99
21.80
23.60
24.43
24.39
23.73
22.82
22.01
21.53
21.41
21.51
21.58
21.39
20.84
19.92
18.74
17.42
16.03
14.55
12.90
11.00
8.81
6.41
3.95
1.55
-0.73
-2.91
-5.08
-7.32
-9.66
-12.11
-14.69
-17.52
-20.71
-24.32
-28.14
-31.67
-34.14
-34.77
-32.99
-28.69
-22.26
-14.48
-6.30
1.48
8.32
13.99
18.43
21.68
23.80
24.88
25.08
24.71
24.08
23.51
23.13
22.91
22.72
22.39
21.85
21.13
20.36
19.69
19.22
18.96
18.85
18.68
18.23
17.28
15.77
13.77
11.53
9.31
7.36
5.75
4.36
2.98
1.35
-0.72
-3.27
-6.21
-9.34
-12.41
-15.21
-17.61
-19.67
-21.54
-23.52
-25.91
-28.99
-32.79
-37.06
-41.19
-44.32
-45.54
-44.21
-40.14
-33.69
-25.67
-17.06
-8.73
-1.28
5.00
10.10
14.09
17.06
19.10
20.26
20.68
20.55
20.14
19.66
19.29
19.08
19.02
19.02
19.01
18.95
18.84
18.67
18.42
18.04
17.45
16.58
15.35
13.77
11.89
9.84
7.78
5.86
4.14
2.61
1.15
-0.40
-2.19
-4.24
-6.52
-8.92
-11.29
-13.53
-15.60
-17.59
-19.62
-21.88
-24.53
-27.58
-30.80
-33.74
-35.79
-36.30
-34.84
-31.28
-25.87
-19.12
-11.73
-4.37
2.39
8.19
12.83
16.30
18.66
20.04
20.59
20.53
20.09
19.54
19.10
18.91
18.99
19.27
19.66
20.08
20.51
20.90
21.17
21.17
20.76
19.89
18.64
17.22
15.87
14.78
14.00
13.47
13.02
12.52
11.85
10.97
9.88
8.64
7.31
5.97
4.64
3.33
1.98
0.54
-0.98
-2.53
-4.03
-5.39
-6.63
-7.83
-9.16
-10.74
-12.58
-14.64
-16.77
-18.89
-20.97
-23.03
-25.10
-27.21
-29.37
-31.65
-34.17
-37.10
-40.44
-43.85
-46.69
-48.09
-47.33
-44.06
-38.46
-31.16
-22.99
-14.74
-6.99
-0.15
5.52
9.86
12.81
14.48
15.17
15.32
15.37
15.61
16.13
16.83
17.56
18.16
18.54
18.69
18.66
18.49
18.25
18.03
17.90
17.88
17.88
17.72
17.20
16.21
14.81
13.24
11.81
10.72
9.95
9.32
8.61
7.69
6.63
5.54
4.50
3.46
2.26
0.78
-0.90
-2.60
-4.09
-5.26
-6.26
-7.45
-9.12
-11.38
-14.08
-16.87
-19.40
-21.49
-23.19
-24.70
-26.34
-28.37
-30.99
-34.18
-37.71
-41.04
-43.44
-44.16
-42.62
-38.64
-32.51
-24.91
-16.72
-8.78
-1.71
4.20
8.90
12.47
15.04
16.66
17.39
17.36
16.79
15.99
15.27
14.80
14.59
14.50
14.38
14.22
14.13
14.33
14.92
15.84
16.83
17.54
17.68
17.20
16.24
15.12
14.11
13.37
12.89
12.46
11.85
10.84
9.33
7.36
5.07
2.70
0.48
-1.39
-2.83
-3.95
-5.01
-6.31
-8.06
-10.28
-12.72
-15.10
-17.17
-18.88
-20.38
-21.90
-23.71
-25.94
-28.65
-31.79
-35.16
-38.38
-40.86
-41.91
-40.88
-37.46
-31.85
-24.67
-16.81
-9.14
-2.25
3.59
8.33
12.06
14.81
16.61
17.51
17.68
17.39
16.97
16.67
16.59
16.70
16.87
17.00
17.06
17.13
17.27
17.54
17.88
18.19
18.34
18.20
17.76
17.08
16.29
15.44
14.55
13.51
12.17
10.46
8.44
6.31
4.27
2.42
0.71
-1.04
-3.00
-5.24
-7.68
-10.17
-12.62
-14.98
-17.34
-19.74
-22.21
-24.79
-27.55
-30.64
-34.16
-38.02
-41.81
-44.78
-46.05
-44.90
-41.07
-34.83
-26.91
-18.28
-9.83
-2.18
4.31
9.57
13.64
16.58
18.45
19.34
19.36
18.77
17.87
17.02
16.49
16.39
16.66
17.11
17.51
17.66
17.49
17.06
16.48
15.86
15.23
14.51
13.55
12.21
10.43
8.21
5.62
2.79
-0.15
-3.07
-5.86
-8.42
-10.75
-12.95
-15.22
-17.78
-20.81
-24.31
-28.03
-31.47
-33.91
-34.62
-33.06
-29.06
-22.95
-15.47
-7.53
0.00
6.57
11.90
15.97
18.82
20.49
21.07
20.73
19.77
18.63
17.66
17.11
16.94
16.98
16.97
16.70
16.13
15.37
14.64
14.09
13.74
13.45
12.95
11.98
10.35
8.10
5.40
2.45
-0.54
-3.48
-6.38
-9.31
-12.34
-15.60
-19.17
-23.07
-27.11
-30.82
-33.45
-34.22
-32.55
-28.31
-21.88
-14.01
-5.60
2.57
9.92
16.08
20.88
24.26
26.29
27.16
27.18
26.69
26.05
25.51
25.24
25.29
25.59
25.98
26.30
26.44
26.40
26.27
26.17
26.15
26.16
26.00
25.46
24.37
22.74
20.72
18.58
16.63
15.05
13.83
12.78
11.60
10.04
8.03
5.70
3.29
1.06
-0.84
-2.39
-3.65
-4.77
-5.92
-7.26
-8.97
-11.10
-13.59
-16.26
-18.87
-21.23
-23.28
-25.08
-26.79
-28.63
-30.89
-33.83
-37.60
-42.06
-46.66
-50.46
-52.36
-51.44
-47.31
-40.26
-31.16
-21.14
-11.29
-2.37
5.19
11.24
15.79
18.97
20.93
21.91
22.22
22.20
22.14
22.23
22.48
22.78
23.00
23.07
23.06
23.13
23.44
24.01
24.70
25.29
25.55
25.32
24.59
23.40
21.88
20.16
18.39
16.70
15.17
13.75
12.35
10.80
9.01
7.01
4.90
2.85
0.92
-0.91
-2.74
-4.67
-6.72
-8.89
-11.11
-13.32
-15.47
-17.54
-19.51
-21.41
-23.34
-25.44
-27.91
-30.85
-34.21
-37.63
-40.45
-41.86
-41.10
-37.75
-31.92
-24.21
-15.53
-6.86
1.04
7.74
13.07
17.05
19.78
21.41
22.08
22.00
21.39
20.49
19.58
18.87
18.53
18.58
18.93
19.42
19.90
20.28
20.56
20.78
20.90
20.80
20.30
19.32
17.90
16.22
14.45
12.70
10.97
9.25
7.53
5.88
4.31
2.76
1.07
-0.92
-3.26
-5.85
-8.46
-10.86
-12.96
-14.82
-16.59
-18.40
-20.32
-22.40
-24.62
-27.06
-29.83
-33.00
-36.52
-40.11
-43.22
-45.08
-44.95
-42.37
-37.37
-30.46
-22.48
-14.31
-6.62
0.24
6.15
11.08
15.00
17.87
19.73
20.74
21.12
21.06
20.69
20.08
19.32
18.52
17.88
17.51
17.46
17.57
17.63
17.41
16.72
15.53
13.93
12.11
10.27
8.55
7.00
5.51
3.95
2.19
0.13
-2.21
-4.76
-7.45
-10.18
-12.90
-15.52
-17.97
-20.27
-22.52
-24.91
-27.61
-30.58
-33.49
-35.67
-36.35
-34.91
-31.12
-25.26
-18.02
-10.27
-2.81
3.81
9.32
13.68
16.94
19.10
20.21
20.33
19.67
18.57
17.43
16.62
16.34
16.57
17.14
17.80
18.38
18.80
19.04
19.10
18.88
18.28
17.19
15.60
13.62
11.49
9.42
7.57
5.97
4.49
2.95
1.14
-1.05
-3.63
-6.46
-9.34
-12.07
-14.50
-16.58
-18.39
-20.08
-21.88
-24.07
-26.84
-30.24
-34.02
-37.59
-40.11
-40.67
-38.62
-33.81
-26.67
-18.10
-9.17
-0.83
6.33
12.15
16.77
20.46
23.43
25.76
27.44
28.44
28.83
28.76
28.48
28.19
28.07
28.16
28.47
28.94
29.48
29.98
30.32
30.41
30.17
29.60
28.72
27.59
26.25
24.81
23.34
21.92
20.58
19.25
17.86
16.35
14.74
13.15
11.71
10.49
9.47
8.53
7.49
6.25
4.82
3.27
1.71
0.19
-1.29
-2.84
-4.57
-6.59
-8.89
-11.38
-13.87
-16.17
-18.15
-19.79
-21.17
-22.48
-23.92
-25.75
-28.16
-31.21
-34.71
-38.12
-40.63
-41.33
-39.53
-35.00
-28.08
-19.66
-10.84
-2.67
4.11
9.24
12.79
15.14
16.73
18.03
19.37
20.93
22.73
24.60
26.27
27.44
27.85
27.39
26.10
24.21
22.04
19.95
18.20
16.91
15.99
15.25
14.43
13.37
12.03
10.51
8.97
7.55
6.33
5.32
4.46
3.70
2.96
2.18
1.30
0.33
-0.74
-1.86
-3.00
-4.12
-5.23
-6.35
-7.57
-8.97
-10.60
-12.43
-14.35
-16.19
-17.85
-19.28
-20.60
-22.03
-23.81
-26.04
-28.63
-31.20
-33.19
-33.96
-33.03
-30.18
-25.62
-19.84
-13.55
-7.40
-1.85
2.89
6.78
9.79
11.88
13.01
13.21
12.70
11.83
11.02
10.55
10.50
10.79
11.23
11.72
12.23
12.82
13.47
14.11
14.59
14.76
14.57
14.03
13.23
12.29
11.30
10.31
9.38
8.53
7.74
6.93
5.99
4.84
3.54
2.23
1.09
0.20
-0.52
-1.31
-2.42
-3.97
-5.89
-7.93
-9.88
-11.55
-12.96
-14.19
-15.32
-16.40
-17.42
-18.44
-19.60
-21.12
-23.17
-25.69
-28.35
-30.59
-31.74
-31.29
-29.04
-25.13
-20.00
-14.26
-8.47
-3.14
1.45
5.13
7.87
9.72
10.77
11.14
11.01
10.57
10.02
9.55
9.27
9.23
9.39
9.69
10.08
10.51
10.94
11.32
11.58
11.70
11.66
11.50
11.23
10.86
10.36
9.69
8.86
7.94
7.06
6.30
5.66
4.99
4.12
2.92
1.39
-0.32
-1.98
-3.39
-4.47
-5.29
-6.02
-6.89
-8.03
-9.49
-11.20
-12.98
-14.67
-16.18
-17.50
-18.77
-20.17
-21.90
-24.08
-26.65
-29.38
-31.80
-33.40
-33.67
-32.26
-29.12
-24.47
-18.77
-12.65
-6.68
-1.33
3.15
6.69
9.34
11.20
12.39
12.95
12.99
12.62
12.03
11.42
10.98
10.77
10.80
10.98
11.24
11.56
11.95
12.46
13.05
13.62
14.02
14.07
13.64
12.74
11.47
10.02
8.63
7.44
6.53
5.82
5.17
4.38
3.30
1.88
0.19
-1.59
-3.27
-4.70
-5.88
-6.91
-8.02
-9.38
-11.09
-13.07
-15.16
-17.16
-18.92
-20.42
-21.74
-23.05
-24.59
-26.54
-29.00
-31.79
-34.52
-36.53
-37.20
-36.06
-32.99
-28.22
-22.30
-15.84
-9.44
-3.56
1.51
5.66
8.84
11.11
12.60
13.47
13.94
14.22
14.48
14.83
15.28
15.77
16.18
16.46
16.59
16.70
16.90
17.22
17.60
17.85
17.75
17.18
16.21
15.02
13.89
12.98
12.32
11.76
11.10
10.16
8.88
7.29
5.53
3.72
1.97
0.35
-1.07
-2.25
-3.22
-4.06
-4.91
-5.95
-7.26
-8.82
-10.50
-12.15
-13.68
-15.13
-16.61
-18.26
-20.21
-22.52
-25.22
-28.29
-31.60
-34.85
-37.57
-39.16
-39.05
-36.89
-32.74
-26.99
-20.30
-13.37
-6.79
-0.93
4.06
8.18
11.44
13.90
15.55
16.47
16.76
16.65
16.41
16.24
16.26
16.46
16.82
17.29
17.89
18.67
19.60
20.53
21.24
21.45
20.99
19.87
18.33
16.69
15.29
14.30
13.70
13.30
12.81
12.03
10.85
9.32
7.62
5.93
4.39
3.03
1.82
0.66
-0.52
-1.79
-3.22
-4.85
-6.76
-8.97
-11.40
-13.85
-16.08
-17.87
-19.22
-20.38
-21.78
-23.84
-26.72
-30.20
-33.60
-36.04
-36.66
-34.97
-30.98
-25.15
-18.26
-11.13
-4.41
1.54
6.55
10.64
13.81
16.10
17.55
18.29
18.50
18.43
18.27
18.12
18.04
18.06
18.20
18.51
19.03
19.71
20.49
21.26
21.91
22.35
22.53
22.36
21.80
20.86
19.59
18.10
16.56
15.08
13.72
12.48
11.31
10.16
9.00
7.80
6.52
5.13
3.64
2.03
0.32
-1.50
-3.46
-5.62
-7.98
-10.49
-13.08
-15.60
-17.93
-20.04
-21.96
-23.86
-25.99
-28.58
-31.75
-35.40
-39.08
-42.07
-43.52
-42.71
-39.34
-33.63
-26.22
-18.03
-9.91
-2.52
3.78
8.90
12.89
15.88
18.04
19.51
20.42
20.89
21.03
20.95
20.80
20.73
20.87
21.27
21.86
22.54
23.13
23.49
23.56
23.36
22.92
22.31
21.57
20.74
19.82
18.83
17.78
16.67
15.46
14.10
12.51
10.67
8.59
6.41
4.29
2.36
0.69
-0.76
-2.11
-3.52
-5.10
-6.93
-9.00
-11.27
-13.66
-16.07
-18.44
-20.72
-22.92
-25.13
-27.53
-30.30
-33.49
-36.91
-40.00
-41.99
-42.04
-39.63
-34.69
-27.71
-19.58
-11.29
-3.65
2.88
8.14
12.22
15.25
17.36
18.64
19.19
19.21
18.96
18.67
18.53
18.55
18.68
18.82
18.96
19.18
19.59
20.27
21.13
21.95
22.44
22.39
21.74
20.64
19.36
18.17
17.18
16.33
15.43
14.25
12.67
10.72
8.58
6.48
4.58
2.90
1.38
-0.14
-1.81
-3.72
-5.88
-8.25
-10.70
-13.10
-15.32
-17.32
-19.18
-21.15
-23.52
-26.56
-30.27
-34.33
-38.07
-40.61
-41.18
-39.31
-35.05
-28.88
-21.57
-13.92
-6.56
0.08
5.78
10.42
13.95
16.34
17.63
18.00
17.76
17.29
16.94
16.87
17.07
17.37
17.54
17.48
17.23
16.93
16.76
16.76
16.86
16.84
16.52
15.78
14.60
13.05
11.20
9.14
6.93
4.64
2.36
0.18
-1.86
-3.78
-5.62
-7.47
-9.36
-11.32
-13.42
-15.82
-18.74
-22.31
-26.41
-30.53
-33.89
-35.58
-34.99
-31.96
-26.83
-20.30
-13.16
-6.09
0.46
6.20
11.01
14.79
17.50
19.18
19.94
19.99
19.61
19.07
18.59
18.30
18.23
18.36
18.61
18.93
19.26
19.50
19.54
19.24
18.56
17.47
16.07
14.48
12.81
11.13
9.44
7.73
5.95
4.01
1.80
-0.76
-3.66
-6.75
-9.79
-12.51
-14.79
-16.69
-18.49
-20.57
-23.28
-26.69
-30.54
-34.18
-36.74
-37.37
-35.56
-31.33
-25.20
-18.05
-10.76
-4.00
1.92
6.94
11.11
14.42
16.78
18.13
18.56
18.30
17.69
17.06
16.60
16.37
16.27
16.17
15.95
15.56
15.06
14.54
14.11
13.77
13.43
12.86
11.83
10.22
8.08
5.62
3.12
0.80
-1.25
-3.11
-4.95
-6.96
-9.24
-11.85
-14.81
-18.12
-21.71
-25.39
-28.74
-31.14
-31.92
-30.55
-26.89
-21.27
-14.40
-7.11
-0.14
6.02
11.13
15.18
18.18
20.14
21.11
21.21
20.66
19.79
18.95
18.41
18.28
18.54
19.05
19.64
20.14
20.47
20.62
20.63
20.54
20.37
20.07
19.53
18.64
17.34
15.62
13.60
11.46
9.37
7.46
5.74
4.15
2.57
0.92
-0.91
-2.95
-5.22
-7.70
-10.27
-12.76
-15.00
-16.87
-18.44
-19.95
-21.77
-24.25
-27.58
-31.63
-35.93
-39.72
-42.10
-42.25
-39.76
-34.69
-27.65
-19.58
-11.48
-4.10
2.19
7.34
11.47
14.71
17.10
18.65
19.43
19.63
19.50
19.31
19.19
19.15
19.09
18.88
18.51
18.09
17.85
17.98
18.53
19.35
20.10
20.38
19.94
18.78
17.18
15.49
14.01
12.84
11.87
10.86
9.59
7.96
6.01
3.91
1.85
-0.00
-1.58
-2.90
-4.08
-5.27
-6.57
-8.06
-9.75
-11.59
-13.49
-15.36
-17.14
-18.84
-20.56
-22.51
-24.94
-27.97
-31.51
-35.07
-37.93
-39.24
-38.39
-35.16
-29.84
-23.06
-15.62
-8.21
-1.37
4.62
9.59
13.44
16.13
17.69
18.22
17.96
17.21
16.34
15.66
15.39
15.57
16.05
16.60
17.01
17.16
17.14
17.10
17.16
17.26
17.23
16.80
15.81
14.30
12.42
10.43
8.49
6.65
4.85
3.00
1.04
-1.08
-3.38
-5.85
-8.46
-11.08
-13.52
-15.61
-17.25
-18.52
-19.66
-20.96
-22.71
-25.08
-28.08
-31.56
-35.14
-38.24
-40.16
-40.19
-37.91
-33.32
-26.89
-19.40
-11.70
-4.46
1.94
7.37
11.89
15.55
18.39
20.38
21.48
21.74
21.31
20.46
19.50
18.71
18.24
18.06
18.03
17.99
17.82
17.48
16.94
16.20
15.21
13.97
12.55
11.03
9.47
7.84
6.01
3.84
1.24
-1.71
-4.77
-7.69
-10.26
-12.46
-14.44
-16.42
-18.66
-21.36
-24.56
-28.12
-31.63
-34.49
-35.94
-35.36
-32.42
-27.26
-20.47
-12.94
-5.56
0.99
6.39
10.64
13.91
16.38
18.11
19.06
19.22
18.68
17.70
16.65
15.87
15.53
15.59
15.82
15.93
15.75
15.28
14.70
14.18
13.84
13.64
13.35
12.72
11.54
9.78
7.56
5.09
2.56
0.09
-2.29
-4.63
-6.95
-9.30
-11.75
-14.40
-17.39
-20.79
-24.52
-28.18
-31.10
-32.52
-31.81
-28.71
-23.46
-16.73
-9.34
-2.09
4.49
10.13
14.75
18.32
20.79
22.12
22.32
21.58
20.24
18.71
17.32
16.30
15.67
15.40
15.39
15.58
15.94
16.38
16.75
16.82
16.39
15.33
13.70
11.66
9.43
7.22
5.09
3.00
0.84
-1.51
-4.07
-6.78
-9.50
-12.06
-14.33
-16.30
-18.05
-19.81
-21.88
-24.51
-27.83
-31.67
-35.53
-38.61
-40.00
-38.99
-35.31
-29.26
-21.62
-13.36
-5.39
1.68
7.55
12.18
15.61
17.97
19.35
19.91
19.83
19.36
18.74
18.17
17.80
17.66
17.75
17.99
18.30
18.65
18.98
19.25
19.35
19.11
18.36
16.99
15.06
12.81
10.59
8.72
7.33
6.30
5.30
3.89
1.79
-1.07
-4.40
-7.79
-10.82
-13.24
-15.10
-16.65
-18.29
-20.38
-23.17
-26.70
-30.76
-34.86
-38.29
-40.23
-39.97
-37.10
-31.72
-24.39
-16.02
-7.62
-0.01
6.27
11.04
14.38
16.46
17.52
17.77
17.46
16.81
16.08
15.44
14.97
14.65
14.33
13.91
13.32
12.65
12.05
11.68
11.56
11.51
11.25
10.43
8.87
6.59
3.83
0.98
-1.65
-3.91
-5.90
-7.88
-10.14
-12.85
-16.04
-19.53
-22.94
-25.78
-27.47
-27.48
-25.50
-21.54
-15.96
-9.39
-2.54
3.97
9.73
14.51
18.27
20.94
22.48
22.85
22.16
20.67
18.80
17.02
15.68
14.93
14.65
14.56
14.31
13.71
12.78
11.69
10.67
9.83
9.11
8.30
7.20
5.65
3.65
1.27
-1.33
-4.02
-6.70
-9.30
-11.81
-14.34
-17.00
-19.98
-23.37
-27.15
-31.05
-34.58
-37.10
-37.95
-36.65
-33.06
-27.46
-20.44
-12.76
-5.15
1.83
7.86
12.76
16.45
18.91
20.18
20.44
20.00
19.21
18.36
17.65
17.10
16.65
16.23
15.82
15.40
14.96
14.47
13.90
13.25
12.56
11.86
11.12
10.22
8.95
7.16
4.84
2.14
-0.69
-3.41
-5.91
-8.24
-10.61
-13.23
-16.28
-19.82
-23.74
-27.81
-31.57
-34.41
-35.63
-34.66
-31.25
-25.60
-18.36
-10.43
-2.69
4.22
10.00
14.60
18.08
20.51
21.93
22.44
22.23
21.55
20.69
19.85
19.14
18.54
18.01
17.48
16.90
16.25
15.51
14.68
13.80
12.87
11.91
10.90
9.79
8.54
7.09
5.42
3.49
1.29
-1.12
-3.67
-6.23
-8.71
-11.12
-13.60
-16.36
-19.59
-23.33
-27.38
-31.23
-34.16
-35.40
-34.37
-30.87
-25.18
-17.99
-10.21
-2.71
3.87
9.19
13.19
15.97
17.63
18.23
17.83
16.56
14.65
12.45
10.32
8.59
7.43
6.90
6.91
7.27
7.77
8.15
8.17
7.68
6.63
5.08
3.22
1.26
-0.68
-2.55
-4.42
-6.36
-8.50
-10.97
-13.87
-17.30
-21.14
-25.00
-28.17
-29.80
-29.14
-25.88
-20.28
-13.17
-5.55
1.60
7.65
12.38
15.81
18.11
19.39
19.75
19.32
18.32
17.06
15.84
14.89
14.28
13.92
13.65
13.30
12.74
11.98
11.09
10.17
9.27
8.36
7.32
5.99
4.24
2.02
-0.55
-3.25
-5.80
-7.99
-9.77
-11.23
-12.58
-14.04
-15.81
-17.97
-20.44
-22.97
-25.06
-26.08
-25.37
-22.46
-17.22
-9.99
-1.43
7.64
16.46
24.50
31.42
37.06
41.39
44.50
46.56
47.87
48.68
49.19
49.43
49.31
48.76
47.78
46.47
45.01
43.57
42.26
41.08
39.94
38.69
37.11
34.90
31.70
27.23
21.35
14.28
6.52
-1.19
-8.11
-13.81
-18.27
-21.90
-25.37
-29.29
-33.98
-39.27
-44.54
-48.87
-51.33
-51.24
-48.37
-43.00
-35.81
-27.69
-19.50
-11.88
-5.16
0.51
5.13
8.73
11.41
13.39
14.98
16.56
18.39
20.44
22.38
23.72
23.99
22.96
20.78
17.83
14.59
11.39
8.30
5.15
1.61
-2.63
-7.67
-13.36
-19.33
-25.08
-30.16
-34.38
-37.76
-40.57
-43.12
-45.71
-48.47
-51.35
-54.06
-56.11
-56.84
-55.60
-51.95
-45.83
-37.69
-28.34
-18.74
-9.79
-2.13
3.89
8.14
10.63
11.54
11.13
9.80
8.04
6.32
4.97
4.10
3.59
3.24
2.84
2.32
1.75
1.28
1.00
0.85
0.63
0.03
-1.18
-3.10
-5.61
-8.49
-11.47
-14.37
-17.13
-19.81
-22.60
-25.67
-29.18
-33.16
-37.45
-41.54
-44.68
-45.96
-44.64
-40.44
-33.62
-24.98
-15.57
-6.36
1.93
8.87
14.33
18.23
20.58
21.48
21.14
19.90
18.15
16.24
14.36
12.57
10.83
9.13
7.51
6.10
5.05
4.44
4.21
4.14
3.88
3.11
1.60
-0.66
-3.46
-6.48
-9.39
-12.04
-14.42
-16.80
-19.53
-22.99
-27.32
-32.27
-37.18
-41.08
-42.96
-42.14
-38.51
-32.52
-25.02
-16.98
-9.22
-2.28
3.53
8.06
11.27
13.25
14.21
14.48
14.47
14.50
14.91
15.97
18.03
21.42
26.34
32.68
39.93
47.26
53.72
58.49
61.15
61.72
60.55
58.15
54.95
51.17
46.74
41.37
34.72
26.58
17.03
6.50
-4.26
-14.35
-22.84
-28.87
-31.82
-31.37
-27.63
-21.20
-13.11
-4.55
3.33
9.80
14.58
17.83
19.87
20.98
21.30
20.86
19.74
18.13
16.37
14.81
13.71
13.13
12.94
12.92
12.92
12.86
12.73
12.53
12.17
11.44
10.08
7.86
4.72
0.79
-3.67
-8.37
-13.14
-17.98
-22.97
-28.19
-33.57
-38.83
-43.47
-46.83
-48.22
-47.13
-43.36
-37.12
-29.02
-19.95
-10.85
-2.54
4.49
10.04
14.13
16.88
18.33
18.51
17.40
15.14
12.01
8.49
5.10
2.29
0.31
-0.83
-1.30
-1.35
-1.25
-1.17
-1.17
-1.27
-1.37
-1.35
-1.08
-0.46
0.44
1.42
2.10
2.08
1.04
-1.18
-4.52
-8.71
-13.30
-17.67
-21.08
-22.76
-22.09
-18.78
-13.04
-5.53
2.74
10.69
17.51
22.77
26.43
28.65
29.62
29.38
27.97
25.48
22.17
18.54
15.15
12.45
10.66
9.77
9.54
9.72
10.01
10.15
9.92
9.19
7.94
6.29
4.50
2.76
1.15
-0.43
-2.18
-4.39
-7.30
-11.06
-15.63
-20.66
-25.48
-29.17
-30.80
-29.76
-25.97
-20.00
-12.81
-5.49
1.08
6.35
10.15
12.51
13.57
13.51
12.54
10.91
8.89
6.72
4.54
2.43
0.36
-1.72
-3.77
-5.66
-7.21
-8.23
-8.67
-8.67
-8.49
-8.44
-8.74
-9.44
-10.48
-11.68
-12.89
-14.01
-15.04
-16.09
-17.42
-19.36
-22.19
-25.90
-30.05
-33.74
-35.87
-35.54
-32.33
-26.47
-18.76
-10.19
-1.72
5.99
12.56
17.79
21.58
23.91
24.84
24.58
23.45
21.82
19.99
18.18
16.47
14.93
13.57
12.44
11.60
11.05
10.69
10.34
9.74
8.68
7.00
4.77
2.15
-0.58
-3.19
-5.54
-7.64
-9.65
-11.78
-14.30
-17.38
-21.03
-25.01
-28.82
-31.71
-32.89
-31.75
-28.10
-22.28
-15.06
-7.44
-0.31
5.72
10.43
13.90
16.30
17.76
18.31
17.95
16.72
14.83
12.67
10.67
9.15
8.26
7.91
7.86
7.91
7.95
8.00
8.18
8.57
9.22
10.19
11.69
14.00
17.42
22.02
27.41
32.66
36.44
37.33
34.19
26.49
14.51
-0.72
-17.53
-33.88
-47.74
-57.35
-61.59
-60.22
-53.87
-43.81
-31.62
-18.70
-6.06
5.75
16.52
26.09
34.33
41.06
46.23
50.03
52.97
55.75
58.97
62.94
67.46
71.90
75.39
77.08
76.36
72.98
67.05
58.92
49.15
38.43
27.51
17.12
7.87
0.10
-6.25
-11.58
-16.47
-21.45
-26.74
-32.26
-37.57
-42.13
-45.42
-47.17
-47.29
-45.93
-43.30
-39.56
-34.87
-29.37
-23.28
-16.92
-10.65
-4.87
0.12
4.06
6.73
7.91
7.47
5.44
2.13
-1.94
-6.16
-10.10
-13.69
-17.19
-21.11
-25.95
-31.93
-38.90
-46.40
-53.86
-60.85
-67.09
-72.58
-77.56
-82.32
-87.10
-92.01
-96.97
-101.77
-105.97
-108.68
-108.86
-105.64
-98.64
-88.10
-74.88
-60.30
-45.66
-32.00
-19.45
-7.71
3.38
13.51
22.15
28.92
33.66
36.94
39.53
42.91
48.18
55.36
63.39
70.83
76.67
80.42
82.62
83.98
86.15
90.42
97.19
105.90
115.75
126.22
136.79
147.40
151.02
142.20
120.33
90.53
59.67
32.66
13.67
1.05
-6.66
-10.86
-11.88
-9.94
-6.07
-1.73
1.60
2.99
1.73
-2.04
-8.15
-15.67
-23.70
-31.82
-40.17
-48.93
-57.65
-65.38
-70.47
-71.70
-68.42
-61.25
-51.91
-42.52
-34.57
-28.32
-23.14
-17.89
-11.92
-5.10
2.16
9.21
15.47
20.46
23.71
24.47
21.99
15.70
5.87
-6.14
-18.06
-27.35
-32.01
-31.28
-25.89
-17.61
-8.58
-0.53
5.66
9.86
12.31
13.14
12.29
9.63
5.38
0.36
-4.20
-7.04
-7.44
-5.56
-2.40
0.70
2.58
2.78
1.56
-0.37
-2.25
-3.63
-4.46
-4.90
-5.12
-5.15
-4.84
-4.07
-2.90
-1.54
-0.29
0.69
1.50
2.49
4.12
6.71
10.26
14.50
18.93
23.02
26.28
28.27
28.57
26.82
22.85
16.83
9.35
1.36
-6.11
-12.22
-16.55
-19.14
-20.39
-20.87
-21.15
-21.69
-22.79
-24.59
-27.02
-29.86
-32.75
-35.31
-37.31
-38.74
-39.83
-41.00
-42.70
-45.17
-48.28
-51.48
-53.87
-54.48
-52.61
-48.00
-41.01
-32.41
-23.19
-14.22
-6.16
0.68
6.17
10.30
13.07
14.47
14.60
13.67
12.06
10.26
8.70
7.68
7.25
7.24
7.32
7.21
6.73
5.85
4.64
3.18
1.55
-0.26
-2.23
-4.40
-6.84
-9.66
-13.04
-17.07
-21.61
-26.18
-30.00
-32.10
-31.67
-28.33
-22.29
-14.26
-5.26
3.71
11.88
18.80
24.33
28.44
31.17
32.57
32.73
31.82
30.12
27.98
25.78
23.79
22.18
20.96
19.98
19.05
17.96
16.57
14.84
12.76
10.42
7.83
5.05
2.09
-1.03
-4.33
-7.85
-11.74
-16.19
-21.26
-26.77
-32.14
-36.42
-38.55
-37.71
-33.64
-26.73
-17.89
-8.24
1.22
9.81
17.18
23.17
27.68
30.66
32.13
32.27
31.47
30.25
29.04
28.08
27.35
26.63
25.73
24.54
23.23
22.02
21.12
20.51
19.92
18.97
17.32
14.88
11.82
8.45
5.07
1.79
-1.43
-4.78
-8.46
-12.67
-17.51
-22.93
-28.56
-33.68
-37.28
-38.29
-35.95
-30.14
-21.44
-10.95
0.02
10.32
19.18
26.22
31.36
34.71
36.43
36.74
35.92
34.33
32.36
30.37
28.66
27.39
26.54
26.01
25.67
25.41
25.14
24.74
23.97
22.51
20.09
16.60
12.22
7.38
2.66
-1.49
-4.88
-7.60
-10.02
-12.58
-15.70
-19.65
-24.41
-29.60
-34.46
-37.95
-39.02
-36.94
-31.59
-23.50
-13.72
-3.51
6.02
14.09
20.36
24.77
27.40
28.41
28.00
26.47
24.22
21.72
19.41
17.60
16.39
15.71
15.38
15.20
15.04
14.82
14.48
13.94
13.14
11.99
10.47
8.60
6.46
4.11
1.61
-1.06
-3.91
-7.02
-10.47
-14.31
-18.43
-22.47
-25.72
-27.26
-26.12
-21.69
-13.90
-3.33
8.99
21.86
34.17
45.08
54.11
61.09
66.20
69.91
72.92
75.97
79.63
84.04
88.95
93.86
98.41
102.66
107.26
113.27
121.83
133.60
148.44
165.20
181.95
196.39
206.41
210.61
208.69
201.62
191.30
179.98
169.40
160.10
151.26
141.10
127.81
110.35
88.89
64.54
38.62
11.85
-16.00
-46.04
-79.67
-117.76
-159.84
-203.62
-245.08
-279.24
-301.40
-308.53
-300.14
-278.23
-246.39
-208.51
-167.63
-125.70
-83.86
-43.10
-4.56
30.61
61.80
89.29
114.24
138.14
162.15
186.44
209.88
230.13
244.06
248.52
241.20
221.32
189.94
149.64
103.77
55.52
7.12
-40.40
-87.01
-133.30
-180.12
-228.39
-278.81
-331.40
-384.93
-436.51
-481.69
-515.42
-533.45
-533.68
-516.76
-485.77
-445.17
-399.51
-352.48
-306.53
-263.00
-222.47
-185.10
-150.87
-119.63
-91.21
-65.42
-42.08
-21.08
-2.36
14.10
28.37
40.61
51.08
60.16
68.25
75.64
82.41
88.38
93.13
96.19
97.16
95.91
92.71
88.16
83.09
78.28
74.20
70.92
68.07
65.09
61.42
56.70
50.86
44.13
36.96
30.07
24.41
21.01
20.80
24.30
31.42
41.43
53.24
65.70
77.97
89.61
100.49
110.57
119.65
127.35
133.18
136.81
138.30
138.22
137.43
136.73
136.45
136.06
134.22
129.04
118.69
101.96
78.63
49.52
16.20
-19.36
-55.14
-89.14
-119.45
-144.31
-162.29
-172.62
-175.46
-172.03
-164.30
-154.56
-144.84
-136.51
-129.97
-124.78
-119.87
-113.92
-105.73
-94.54
-80.21
-63.27
-44.73
-25.91
-8.15
7.47
20.25
29.96
36.73
41.00
43.27
44.09
43.93
43.22
42.39
41.84
41.84
42.49
43.58
44.73
45.51
45.65
45.12
44.13
42.97
41.80
40.57
38.93
36.50
32.98
28.42
23.16
17.75
12.68
8.19
4.20
0.35
-3.79
-8.59
-14.29
-20.89
-28.10
-35.17
-40.98
-44.13
-43.34
-37.99
-28.34
-15.57
-1.39
12.51
24.95
35.44
44.00
50.87
56.16
59.81
61.71
61.90
60.70
58.64
56.31
54.12
52.23
50.58
49.05
47.55
46.10
44.80
43.66
42.66
41.64
40.39
38.78
36.70
34.16
31.22
27.93
24.32
20.39
16.17
11.72
7.21
2.86
-1.13
-4.64
-7.75
-10.77
-14.18
-18.43
-23.67
-29.60
-35.43
-40.03
-42.21
-41.04
-36.12
-27.68
-16.54
-3.93
8.84
20.60
30.48
38.03
43.11
45.82
46.40
45.18
42.58
39.17
35.58
32.43
30.13
28.76
28.10
27.74
27.30
26.56
25.54
24.40
23.33
22.38
21.40
20.09
18.14
15.30
11.53
6.99
2.06
-2.81
-7.20
-10.90
-14.02
-16.94
-20.25
-24.43
-29.64
-35.48
-40.99
-44.83
-45.71
-42.76
-35.83
-25.60
-13.35
-0.59
11.31
21.43
29.30
34.82
38.10
39.32
38.71
36.63
33.58
30.21
27.15
24.88
23.62
23.26
23.48
23.85
24.03
23.83
23.21
22.23
21.00
19.52
17.80
15.75
13.32
10.44
7.14
3.45
-0.51
-4.62
-8.73
-12.71
-16.46
-19.93
-23.18
-26.40
-29.88
-33.96
-38.82
-44.29
-49.71
-53.97
-55.77
-54.01
-48.28
-38.94
-27.10
-14.22
-1.69
9.48
18.78
26.07
31.38
34.76
36.29
36.11
34.56
32.19
29.60
27.30
25.56
24.38
23.60
23.07
22.70
22.55
22.65
22.97
23.34
23.53
23.34
22.60
21.28
19.32
16.78
13.75
10.49
7.35
4.64
2.55
0.94
-0.61
-2.63
-5.62
-9.87
-15.40
-22.02
-29.33
-36.71
-43.28
-48.00
-49.86
-48.21
-43.07
-35.11
-25.57
-15.75
-6.72
0.94
7.08
11.77
15.08
17.03
17.65
17.09
15.71
13.97
12.31
10.99
10.08
9.43
8.86
8.31
7.79
7.44
7.29
7.24
7.03
6.30
4.77
2.38
-0.72
-4.20
-7.69
-10.97
-13.95
-16.73
-19.54
-22.70
-26.51
-31.08
-36.18
-41.10
-44.73
-45.86
-43.57
-37.63
-28.64
-17.83
-6.71
3.44
11.77
18.00
22.15
24.47
25.18
24.55
22.89
20.56
18.00
15.57
13.49
11.84
10.57
9.62
8.98
8.64
8.61
8.74
8.73
8.20
6.81
4.46
1.30
-2.31
-5.98
-9.40
-12.47
-15.30
-18.14
-21.28
-25.03
-29.56
-34.76
-40.16
-44.81
-47.48
-47.02
-42.79
-34.95
-24.47
-12.82
-1.46
8.51
16.55
22.56
26.68
29.07
29.91
29.42
27.89
25.77
23.51
21.52
20.06
19.23
18.90
18.86
18.80
18.46
17.70
16.55
15.18
13.78
12.41
10.94
9.09
6.57
3.26
-0.66
-4.84
-8.85
-12.39
-15.43
-18.18
-20.95
-24.02
-27.63
-31.87
-36.74
-42.03
-47.19
-51.30
-53.22
-51.89
-46.79
-38.19
-27.09
-14.98
-3.32
6.85
15.04
21.23
25.67
28.62
30.32
30.93
30.63
29.69
28.39
27.03
25.85
24.98
24.40
24.00
23.64
23.23
22.73
22.17
21.54
20.77
19.69
18.14
16.04
13.45
10.59
7.71
4.97
2.36
-0.28
-3.17
-6.42
-9.94
-13.45
-16.70
-19.54
-22.04
-24.48
-27.19
-30.46
-34.40
-38.85
-43.29
-46.94
-48.80
-47.93
-43.75
-36.27
-26.20
-14.71
-3.19
7.17
15.62
21.88
26.03
28.36
29.23
28.98
27.97
26.54
25.03
23.72
22.81
22.40
22.48
22.89
23.42
23.83
23.94
23.69
23.12
22.34
21.42
20.37
19.07
17.41
15.34
12.95
10.42
8.01
5.85
3.95
2.15
0.18
-2.20
-5.13
-8.57
-12.29
-15.96
-19.26
-22.01
-24.22
-26.07
-27.88
-29.99
-32.71
-36.18
-40.36
-44.83
-48.83
-51.30
-51.17
-47.72
-40.86
-31.25
-20.12
-8.90
1.21
9.50
15.76
20.17
23.07
24.80
25.63
25.80
25.55
25.11
24.66
24.36
24.24
24.28
24.43
24.63
24.86
25.09
25.34
25.57
25.70
25.59
25.12
24.23
22.95
21.36
19.57
17.66
15.72
13.81
12.03
10.48
9.27
8.37
7.62
6.69
5.32
3.36
0.94
-1.64
-4.06
-6.11
-7.79
-9.22
-10.63
-12.17
-13.91
-15.88
-18.08
-20.46
-22.95
-25.41
-27.68
-29.67
-31.43
-33.19
-35.30
-38.05
-41.55
-45.48
-49.14
-51.55
-51.71
-48.91
-43.04
-34.63
-24.67
-14.39
-4.88
3.15
9.38
13.83
16.68
18.19
18.62
18.32
17.63
16.91
16.39
16.15
16.16
16.28
16.44
16.59
16.80
17.11
17.54
17.96
18.18
18.02
17.38
16.30
14.96
13.56
12.30
11.26
10.40
9.55
8.51
7.08
5.18
2.83
0.23
-2.33
-4.59
-6.39
-7.74
-8.81
-9.88
-11.20
-12.92
-15.00
-17.27
-19.50
-21.53
-23.32
-25.03
-26.91
-29.27
-32.28
-35.82
-39.44
-42.37
-43.67
-42.56
-38.64
-32.11
-23.71
-14.51
-5.58
2.24
8.51
13.15
16.30
18.22
19.13
19.25
18.79
17.95
17.00
16.16
15.64
15.53
15.79
16.19
16.45
16.34
15.84
15.14
14.55
14.31
14.42
14.60
14.43
13.61
12.03
9.87
7.40
4.88
2.46
0.26
-1.69
-3.39
-4.93
-6.57
-8.57
-11.10
-14.07
-17.13
-19.87
-22.02
-23.66
-25.21
-27.22
-30.13
-34.05
-38.70
-43.40
-47.23
-49.23
-48.64
-45.12
-38.91
-30.76
-21.72
-12.85
-4.92
1.62
6.68
10.36
12.83
14.31
15.00
15.13
14.88
14.42
13.87
13.29
12.71
12.17
11.67
11.21
10.79
10.41
10.07
9.74
9.31
8.59
7.44
5.74
3.52
0.92
-1.83
-4.51
-6.96
-9.18
-11.31
-13.62
-16.39
-19.80
-23.76
-27.83
-31.31
-33.38
-33.34
-30.80
-25.86
-19.00
-11.06
-2.94
4.55
10.87
15.77
19.28
21.55
22.72
22.91
22.23
20.92
19.30
17.74
16.56
15.86
15.53
15.34
15.06
14.59
13.96
13.31
12.71
12.18
11.59
10.71
9.33
7.29
4.63
1.52
-1.73
-4.84
-7.64
-10.15
-12.59
-15.26
-18.44
-22.27
-26.69
-31.38
-35.73
-38.96
-40.22
-38.89
-34.71
-27.95
-19.33
-9.89
-0.70
7.39
13.89
18.65
21.80
23.57
24.22
23.91
22.88
21.38
19.76
18.35
17.40
16.92
16.72
16.52
16.12
15.47
14.72
14.01
13.42
12.79
11.82
10.19
7.72
4.49
0.83
-2.85
-6.20
-9.07
-11.58
-14.00
-16.72
-20.04
-24.03
-28.44
-32.65
-35.75
-36.79
-35.06
-30.34
-23.00
-13.89
-4.09
5.36
13.70
20.50
25.63
29.17
31.29
32.21
32.17
31.44
30.29
29.06
28.08
27.62
27.80
28.52
29.49
30.33
30.76
30.73
30.35
29.79
29.18
28.47
27.52
26.18
24.44
22.43
20.36
18.42
16.68
15.10
13.59
12.05
10.43
8.74
6.98
5.16
3.29
1.39
-0.48
-2.27
-3.95
-5.57
-7.26
-9.16
-11.37
-13.87
-16.54
-19.22
-21.79
-24.22
-26.57
-28.94
-31.44
-34.16
-37.28
-40.95
-45.28
-50.01
-54.46
-57.54
-58.03
-55.07
-48.50
-38.98
-27.78
-16.30
-5.69
3.38
10.73
16.43
20.68
23.63
25.45
26.33
26.51
26.28
25.91
25.62
25.57
25.78
26.19
26.68
27.11
27.39
27.51
27.52
27.46
27.32
27.02
26.44
25.48
24.14
22.52
20.73
18.87
17.00
15.11
13.21
11.30
9.43
7.61
5.86
4.15
2.45
0.78
-0.86
-2.48
-4.13
-5.91
-7.89
-10.09
-12.42
-14.74
-16.85
-18.66
-20.16
-21.50
-22.96
-24.86
-27.54
-31.10
-35.34
-39.68
-43.19
-44.85
-43.87
-39.92
-33.29
-24.79
-15.46
-6.34
1.76
8.37
13.35
16.73
18.72
19.55
19.53
18.96
18.11
17.20
16.34
15.66
15.25
15.19
15.53
16.22
17.11
18.01
18.69
19.06
19.11
18.86
18.34
17.50
16.29
14.70
12.82
10.86
9.02
7.43
6.05
4.76
3.40
1.93
0.39
-1.13
-2.58
-4.00
-5.55
-7.41
-9.68
-12.32
-15.14
-17.88
-20.26
-22.13
-23.50
-24.57
-25.70
-27.31
-29.76
-33.14
-37.18
-41.23
-44.33
-45.52
-44.14
-40.04
-33.64
-25.78
-17.39
-9.27
-1.90
4.46
9.69
13.70
16.44
17.95
18.42
18.24
17.80
17.44
17.33
17.45
17.72
18.08
18.51
19.04
19.65
20.29
20.82
21.10
21.01
20.51
19.63
18.39
16.89
15.20
13.46
11.80
10.29
8.93
7.58
6.06
4.25
2.20
0.10
-1.77
-3.22
-4.30
-5.25
-6.46
-8.21
-10.56
-13.31
-16.13
-18.71
-20.89
-22.70
-24.33
-26.04
-28.11
-30.78
-34.12
-37.99
-41.88
-44.99
-46.38
-45.24
-41.25
-34.64
-26.23
-17.09
-8.30
-0.63
5.54
10.17
13.47
15.71
17.16
18.01
18.43
18.54
18.48
18.36
18.29
18.36
18.55
18.83
19.10
19.31
19.42
19.46
19.46
19.44
19.35
19.06
18.39
17.15
15.29
12.89
10.20
7.56
5.22
3.28
1.64
0.05
-1.77
-3.93
-6.34
-8.81
-11.12
-13.16
-14.98
-16.73
-18.58
-20.69
-23.18
-26.19
-29.78
-33.85
-38.00
-41.50
-43.41
-42.91
-39.60
-33.71
-26.04
-17.69
-9.63
-2.54
3.36
8.10
11.76
14.37
15.89
16.32
15.82
14.73
13.44
12.29
11.45
10.88
10.47
10.09
9.71
9.37
9.14
9.03
8.88
8.45
7.44
5.71
3.32
0.59
-2.12
-4.53
-6.65
-8.75
-11.23
-14.41
-18.36
-22.86
-27.37
-31.18
-33.47
-33.57
-31.01
-25.78
-18.36
-9.62
-0.66
7.54
14.32
19.43
22.95
25.13
26.29
26.68
26.55
26.14
25.66
25.33
25.27
25.51
25.95
26.36
26.51
26.26
25.63
24.83
24.18
23.90
24.03
24.37
24.53
24.13
22.99
21.15
18.88
16.49
14.24
12.23
10.40
8.61
6.69
4.62
2.45
0.34
-1.59
-3.30
-4.91
-6.63
-8.68
-11.18
-14.05
-17.09
-20.01
-22.63
-24.93
-27.08
-29.32
-31.93
-35.12
-38.99
-43.46
-48.17
-52.48
-55.49
-56.26
-54.09
-48.72
-40.56
-30.51
-19.73
-9.33
-0.07
7.66
13.81
18.48
21.82
23.99
25.15
25.54
25.44
25.19
25.07
25.28
25.84
26.66
27.53
28.29
28.82
29.10
29.18
29.13
28.94
28.53
27.80
26.66
25.17
23.47
21.75
20.14
18.61
17.02
15.20
13.09
10.81
8.59
6.66
5.07
3.69
2.25
0.47
-1.80
-4.51
-7.51
-10.56
-13.41
-15.92
-18.05
-19.92
-21.76
-23.87
-26.57
-30.04
-34.25
-38.85
-43.20
-46.41
-47.57
-46.04
-41.63
-34.74
-26.18
-16.96
-8.00
0.07
6.98
12.63
17.02
20.19
22.18
23.13
23.27
22.88
22.23
21.58
21.09
20.87
20.99
21.47
22.30
23.38
24.56
25.65
26.48
26.87
26.69
25.88
24.48
22.68
20.76
19.03
17.68
16.72
15.91
14.89
13.34
11.14
8.42
5.53
2.84
0.58
-1.26
-2.91
-4.63
-6.66
-9.05
-11.72
-14.51
-17.23
-19.77
-22.11
-24.30
-26.51
-28.97
-31.93
-35.55
-39.73
-44.03
-47.65
-49.57
-48.92
-45.21
-38.57
-29.71
-19.70
-9.67
-0.55
7.13
13.15
17.57
20.60
22.50
23.56
24.07
24.30
24.45
24.63
24.89
25.22
25.58
25.92
26.22
26.47
26.66
26.81
26.93
27.01
26.98
26.74
26.15
25.06
23.44
21.40
19.16
17.05
15.30
13.97
12.93
11.88
10.56
8.84
6.80
4.62
2.49
0.50
-1.40
-3.33
-5.43
-7.75
-10.28
-12.95
-15.63
-18.22
-20.63
-22.83
-24.87
-26.88
-29.09
-31.73
-34.98
-38.82
-42.93
-46.68
-49.19
-49.54
-47.09
-41.71
-33.87
-24.51
-14.80
-5.77
1.91
7.98
12.52
15.76
17.93
19.25
19.89
20.03
19.88
19.66
19.55
19.67
20.03
20.55
21.11
21.60
21.96
22.19
22.32
22.39
22.34
22.10
21.52
20.52
19.12
17.45
15.70
14.04
12.51
11.02
9.42
7.63
5.67
3.70
1.87
0.30
-1.07
-2.39
-3.87
-5.67
-7.82
-10.26
-12.84
-15.41
-17.82
-19.97
-21.81
-23.40
-24.93
-26.75
-29.21
-32.54
-36.60
-40.81
-44.24
-45.86
-44.85
-40.94
-34.41
-26.05
-16.85
-7.76
0.50
7.47
12.94
16.89
19.44
20.80
21.24
21.08
20.57
19.97
19.46
19.21
19.28
19.67
20.26
20.88
21.41
21.80
22.08
22.31
22.47
22.42
22.01
21.10
19.73
18.02
16.22
14.53
13.06
11.77
10.51
9.14
7.55
5.75
3.85
1.99
0.29
-1.22
-2.57
-3.87
-5.28
-6.91
-8.82
-11.01
-13.42
-15.95
-18.46
-20.83
-23.00
-25.02
-27.03
-29.29
-32.06
-35.51
-39.53
-43.65
-47.12
-49.02
-48.57
-45.36
-39.51
-31.63
-22.63
-13.46
-4.88
2.60
8.78
13.64
17.27
19.78
21.31
22.02
22.09
21.77
21.34
21.04
21.03
21.32
21.83
22.39
22.86
23.19
23.40
23.55
23.66
23.69
23.55
23.11
22.28
21.08
19.62
18.04
16.48
15.01
13.57
12.06
10.37
8.43
6.32
4.18
2.24
0.63
-0.62
-1.66
-2.72
-4.06
-5.87
-8.17
-10.83
-13.60
-16.25
-18.58
-20.57
-22.32
-24.01
-25.90
-28.23
-31.18
-34.80
-38.85
-42.75
-45.64
-46.60
-44.94
-40.48
-33.60
-25.19
-16.29
-7.81
-0.32
5.91
10.87
14.62
17.22
18.76
19.35
19.19
18.53
17.67
16.88
16.36
16.28
16.64
17.38
18.32
19.26
20.04
20.59
20.91
21.02
20.87
20.38
19.46
18.10
16.45
14.76
13.26
12.07
11.07
9.97
8.51
6.58
4.30
1.98
-0.05
-1.62
-2.81
-3.90
-5.21
-6.97
-9.24
-11.88
-14.63
-17.25
-19.59
-21.65
-23.58
-25.66
-28.16
-31.28
-34.98
-38.95
-42.56
-44.96
-45.35
-43.13
-38.20
-30.95
-22.20
-13.00
-4.25
3.35
9.52
14.23
17.62
19.88
21.22
21.77
21.71
21.24
20.60
20.06
19.81
19.95
20.44
21.15
21.88
22.53
23.03
23.42
23.73
23.89
23.77
23.17
21.98
20.24
18.17
16.09
14.29
12.91
11.87
10.97
9.92
8.54
6.77
4.68
2.44
0.21
-1.83
-3.61
-5.12
-6.47
-7.84
-9.40
-11.32
-13.64
-16.30
-19.11
-21.90
-24.50
-26.89
-29.17
-31.54
-34.26
-37.49
-41.18
-44.93
-47.96
-49.35
-48.26
-44.29
-37.66
-29.12
-19.71
-10.48
-2.19
4.74
10.23
14.37
17.36
19.40
20.74
21.58
22.15
22.60
22.99
23.34
23.61
23.77
23.84
23.83
23.82
23.88
24.06
24.35
24.67
24.84
24.69
24.08
22.92
21.29
19.34
17.30
15.38
13.75
12.37
11.11
9.79
8.23
6.40
4.42
2.46
0.74
-0.68
-1.88
-3.13
-4.68
-6.72
-9.24
-12.01
-14.77
-17.26
-19.41
-21.34
-23.25
-25.37
-27.91
-30.97
-34.58
-38.57
-42.46
-45.47
-46.66
-45.22
-40.81
-33.77
-25.02
-15.74
-6.98
0.63
6.88
11.84
15.62
18.30
19.96
20.73
20.86
20.65
20.37
20.17
20.11
20.17
20.38
20.76
21.29
21.93
22.55
23.02
23.23
23.14
22.76
22.15
21.35
20.39
19.33
18.19
16.99
15.70
14.29
12.67
10.78
8.61
6.26
3.90
1.76
-0.01
-1.37
-2.49
-3.65
-5.16
-7.20
-9.71
-12.47
-15.16
-17.58
-19.70
-21.69
-23.80
-26.22
-29.03
-32.25
-35.87
-39.85
-43.93
-47.54
-49.81
-49.79
-46.84
-40.92
-32.69
-23.23
-13.69
-4.90
2.72
9.07
14.15
17.94
20.39
21.62
21.88
21.63
21.32
21.28
21.63
22.31
23.12
23.91
24.53
24.94
25.13
25.16
25.08
24.93
24.71
24.38
23.87
23.10
22.01
20.59
18.91
17.10
15.27
13.57
12.04
10.63
9.21
7.66
5.92
4.04
2.18
0.49
-1.00
-2.41
-3.96
-5.88
-8.22
-10.88
-13.61
-16.20
-18.56
-20.82
-23.20
-25.91
-29.13
-32.88
-37.08
-41.40
-45.31
-48.07
-48.89
-47.15
-42.64
-35.70
-27.11
-17.89
-8.99
-1.08
5.54
10.86
14.98
18.04
20.10
21.22
21.49
21.18
20.62
20.20
20.23
20.76
21.68
22.73
23.67
24.38
24.86
25.16
25.32
25.25
24.85
24.05
22.90
21.53
20.15
18.86
17.62
16.28
14.65
12.65
10.34
7.94
5.67
3.66
1.85
0.08
-1.84
-4.04
-6.48
-9.07
-11.67
-14.20
-16.67
-19.11
-21.60
-24.18
-26.92
-29.90
-33.21
-36.80
-40.33
-43.15
-44.43
-43.37
-39.50
-32.97
-24.47
-15.10
-6.01
1.92
8.25
12.93
16.19
18.30
19.47
19.80
19.41
18.48
17.31
16.26
15.65
15.63
16.13
16.90
17.61
17.99
17.88
17.31
16.37
15.22
13.96
12.60
11.08
9.29
7.16
4.70
2.06
-0.60
-3.15
-5.58
-8.02
-10.61
-13.40
-16.34
-19.31
-22.24
-25.24
-28.49
-32.17
-36.13
-39.81
-42.27
-42.52
-39.89
-34.32
-26.45
-17.37
-8.26
-0.04
6.84
12.35
16.68
19.99
22.37
23.85
24.49
24.49
24.17
23.88
23.84
24.13
24.67
25.30
25.80
26.06
26.02
25.71
25.23
24.64
24.03
23.37
22.57
21.53
20.19
18.56
16.70
14.70
12.59
10.34
7.92
5.31
2.59
-0.15
-2.85
-5.48
-8.09
-10.71
-13.30
-15.79
-18.09
-20.19
-22.23
-24.50
-27.33
-30.99
-35.52
-40.60
-45.52
-49.26
-50.72
-49.06
-43.98
-35.92
-25.90
-15.26
-5.25
3.31
10.10
15.26
19.09
21.88
23.79
24.89
25.24
25.03
24.57
24.18
24.11
24.39
24.89
25.41
25.79
26.01
26.22
26.55
27.02
27.46
27.57
27.04
25.76
23.82
21.47
19.04
16.81
14.94
13.50
12.42
11.51
10.51
9.18
7.42
5.27
2.91
0.61
-1.46
-3.27
-4.93
-6.61
-8.45
-10.51
-12.77
-15.18
-17.69
-20.25
-22.85
-25.45
-28.08
-30.81
-33.80
-37.21
-41.13
-45.36
-49.36
-52.27
-53.07
-51.00
-45.80
-37.87
-28.15
-17.82
-7.91
0.86
8.15
13.86
18.03
20.72
22.05
22.30
21.87
21.21
20.71
20.62
21.00
21.75
22.65
23.48
24.08
24.43
24.63
24.81
25.04
25.25
25.19
24.63
23.41
21.59
19.42
17.24
15.32
13.77
12.52
11.39
10.16
8.70
6.92
4.85
2.60
0.33
-1.77
-3.61
-5.23
-6.80
-8.58
-10.78
-13.48
-16.56
-19.77
-22.83
-25.56
-27.93
-30.06
-32.19
-34.60
-37.55
-41.21
-45.49
-49.92
-53.69
-55.75
-55.13
-51.29
-44.31
-34.95
-24.32
-13.62
-3.77
4.64
11.43
16.58
20.23
22.54
23.71
24.09
24.06
24.04
24.34
25.06
26.12
27.29
28.34
29.12
29.69
30.18
30.76
31.50
32.30
32.98
33.32
33.19
32.59
31.57
30.25
28.73
27.14
25.58
24.14
22.86
21.73
20.64
19.52
18.31
17.06
15.86
14.76
13.65
12.27
10.23
7.27
3.30
-1.43
-6.53
-11.55
-16.21
-20.41
-24.28
-28.06
-32.04
-36.46
-41.37
-46.55
-51.42
-55.03
-56.38
-54.71
-49.80
-42.18
-32.88
-23.16
-14.05
-6.16
0.31
5.45
9.37
12.15
13.82
14.47
14.31
13.67
12.95
12.47
12.40
12.75
13.39
14.19
15.07
16.01
17.03
18.06
18.92
19.38
19.18
18.26
16.74
14.91
13.10
11.52
10.19
8.98
7.66
6.05
4.08
1.79
-0.69
-3.17
-5.48
-7.48
-9.16
-10.64
-12.13
-13.88
-16.04
-18.57
-21.27
-23.91
-26.27
-28.40
-30.49
-32.89
-35.91
-39.66
-43.97
-48.37
-52.06
-54.12
-53.72
-50.33
-43.97
-35.21
-25.04
-14.60
-4.85
3.61
10.52
15.89
19.83
22.44
23.84
24.21
23.88
23.25
22.71
22.51
22.70
23.17
23.74
24.25
24.69
25.17
25.78
26.53
27.27
27.73
27.63
26.82
25.36
23.45
21.38
19.41
17.66
16.10
14.55
12.82
10.76
8.37
5.79
3.26
1.00
-0.90
-2.50
-3.99
-5.63
-7.61
-10.02
-12.83
-15.93
-19.17
-22.42
-25.57
-28.57
-31.50
-34.52
-37.87
-41.71
-45.91
-49.97
-52.99
-53.94
-51.96
-46.73
-38.58
-28.44
-17.53
-7.01
2.23
9.73
15.40
19.37
21.90
23.27
23.79
23.75
23.41
23.05
22.84
22.92
23.27
23.84
24.50
25.14
25.70
26.12
26.37
26.41
26.16
25.56
24.58
23.24
21.57
19.65
17.54
15.34
13.11
10.93
8.81
6.73
4.64
2.50
0.32
-1.91
-4.20
-6.58
-9.12
-11.80
-14.57
-17.26
-19.71
-21.86
-23.74
-25.54
-27.54
-30.07
-33.36
-37.42
-41.92
-46.10
-48.93
-49.40
-46.87
-41.30
-33.26
-23.76
-13.88
-4.53
3.72
10.56
15.86
19.61
21.88
22.91
23.02
22.64
22.13
21.71
21.48
21.41
21.48
21.70
22.07
22.63
23.32
24.05
24.66
24.95
24.74
23.98
22.67
20.98
19.07
17.15
15.31
13.56
11.79
9.84
7.58
5.00
2.19
-0.65
-3.30
-5.66
-7.75
-9.75
-11.85
-14.27
-17.06
-20.17
-23.43
-26.68
-29.82
-32.85
-35.86
-38.98
-42.40
-46.23
-50.44
-54.71
-58.38
-60.49
-60.09
-56.56
-49.90
-40.72
-30.10
-19.20
-8.94
0.11
7.71
13.75
18.24
21.21
22.86
23.50
23.61
23.63
23.89
24.53
25.48
26.56
27.53
28.26
28.75
29.06
29.33
29.63
29.90
29.98
29.71
28.99
27.84
26.37
24.72
22.99
21.19
19.27
17.15
14.78
12.19
9.48
6.80
4.31
2.09
0.05
-1.95
-4.14
-6.66
-9.48
-12.45
-15.33
-17.95
-20.28
-22.46
-24.77
-27.55
-31.11
-35.54
-40.63
-45.75
-49.90
-51.97
-51.00
-46.61
-39.07
-29.31
-18.58
-8.11
1.19
8.85
14.83
19.31
22.54
24.73
26.01
26.50
26.33
25.73
24.98
24.36
24.06
24.18
24.66
25.38
26.22
27.04
27.74
28.18
28.20
27.69
26.66
25.21
23.55
21.89
20.32
18.84
17.35
15.71
13.84
11.67
9.19
6.46
3.57
0.68
-2.06
-4.53
-6.75
-8.83
-10.97
-13.34
-16.01
-18.98
-22.12
-25.29
-28.39
-31.44
-34.62
-38.17
-42.18
-46.49
-50.48
-53.18
-53.53
-50.78
-44.80
-36.16
-25.89
-15.20
-5.04
3.95
11.49
17.45
21.76
24.44
25.60
25.59
24.90
24.06
23.53
23.53
24.06
24.93
25.95
26.96
27.91
28.80
29.66
30.44
31.02
31.20
30.82
29.77
28.07
25.91
23.55
21.26
19.24
17.58
16.14
14.71
13.01
10.89
8.37
5.68
3.10
0.85
-1.03
-2.74
-4.57
-6.76
-9.40
-12.36
-15.44
-18.44
-21.32
-24.10
-26.92
-29.92
-33.19
-36.83
-40.88
-45.25
-49.60
-53.27
-55.37
-54.97
-51.50
-44.91
-35.79
-25.18
-14.24
-3.98
4.99
12.39
18.23
22.59
25.61
27.45
28.31
28.47
28.23
27.91
27.73
27.80
28.16
28.74
29.45
30.17
30.83
31.36
31.73
31.92
31.84
31.38
30.39
28.78
26.58
24.00
21.30
18.76
16.54
14.63
12.88
11.10
9.16
7.01
4.74
2.52
0.46
-1.38
-3.14
-5.02
-7.27
-10.02
-13.20
-16.59
-19.86
-22.77
-25.25
-27.48
-29.79
-32.55
-36.05
-40.32
-45.00
-49.34
-52.31
-52.83
-50.19
-44.24
-35.53
-25.13
-14.29
-4.09
4.80
12.08
17.70
21.68
24.06
24.97
24.73
23.86
22.96
22.50
22.67
23.37
24.35
25.34
26.20
26.89
27.43
27.82
27.98
27.82
27.24
26.24
24.90
23.38
21.82
20.34
18.94
17.51
15.81
13.62
10.85
7.61
4.21
1.05
-1.58
-3.57
-5.07
-6.40
-7.89
-9.78
-12.17
-14.96
-17.97
-21.00
-23.91
-26.58
-29.06
-31.46
-34.04
-37.06
-40.78
-45.20
-49.96
-54.23
-56.89
-56.78
-53.19
-46.08
-36.19
-24.79
-13.26
-2.70
6.23
13.36
18.78
22.71
25.32
26.81
27.39
27.36
27.06
26.81
26.82
27.13
27.67
28.21
28.60
28.78
28.84
28.91
29.10
29.33
29.37
28.97
27.99
26.46
24.60
22.67
20.80
19.01
17.18
15.14
12.81
10.19
7.39
4.55
1.84
-0.59
-2.64
-4.37
-5.95
-7.63
-9.66
-12.14
-14.99
-18.02
-20.99
-23.76
-26.32
-28.79
-31.34
-34.24
-37.73
-41.95
-46.80
-51.79
-56.01
-58.31
-57.62
-53.36
-45.68
-35.40
-23.78
-12.16
-1.59
7.26
14.16
19.13
22.38
24.23
25.07
25.29
25.25
25.22
25.33
25.55
25.81
25.98
26.01
25.92
25.82
25.85
26.14
26.67
27.26
27.63
27.47
26.58
24.99
22.89
20.58
18.29
16.11
14.02
11.92
9.72
7.43
5.12
2.87
0.73
-1.33
-3.39
-5.56
-7.94
-10.55
-13.35
-16.19
-18.93
-21.44
-23.70
-25.83
-28.08
-30.78
-34.19
-38.47
-43.41
-48.43
-52.55
-54.61
-53.59
-49.00
-41.07
-30.72
-19.28
-8.10
1.81
9.93
16.17
20.66
23.65
25.32
25.91
25.69
25.04
24.33
23.90
23.88
24.22
24.77
25.38
25.94
26.44
26.90
27.31
27.60
27.67
27.37
26.57
25.19
23.28
21.01
18.63
16.38
14.40
12.71
11.14
9.46
7.47
5.13
2.52
-0.16
-2.71
-5.03
-7.17
-9.30
-11.58
-14.11
-16.85
-19.65
-22.37
-24.93
-27.38
-29.86
-32.54
-35.57
-39.12
-43.28
-48.03
-53.00
-57.41
-60.15
-60.06
-56.35
-49.01
-38.86
-27.25
-15.62
-5.04
3.99
11.41
17.37
21.98
25.26
27.18
27.88
27.63
26.84
25.98
25.35
25.13
25.34
25.91
26.76
27.80
28.91
29.92
30.65
30.89
30.54
29.59
28.17
26.50
24.83
23.30
21.91
20.59
19.10
17.27
14.93
12.05
8.74
5.27
1.98
-0.77
-2.81
-4.28
-5.56
-7.17
-9.49
-12.60
-16.21
-19.90
-23.29
-26.21
-28.77
-31.25
-33.96
-37.19
-41.12
-45.77
-50.84
-55.65
-59.15
-60.20
-57.91
-52.06
-43.19
-32.43
-21.11
-10.34
-0.74
7.50
14.47
20.29
24.95
28.34
30.32
30.95
30.48
29.40
28.24
27.45
27.24
27.53
28.09
28.63
28.97
29.06
28.95
28.65
28.15
27.40
26.38
25.12
23.73
22.28
20.79
19.16
17.28
15.04
12.45
9.59
6.64
3.74
1.00
-1.58
-4.04
-6.47
-8.97
-11.59
-14.34
-17.20
-20.10
-23.03
-25.95
-28.92
-32.06
-35.55
-39.55
-44.05
-48.70
-52.81
-55.39
-55.45
-52.33
-45.87
-36.58
-25.47
-13.76
-2.65
7.01
14.75
20.46
24.32
26.63
27.69
27.80
27.25
26.37
25.49
24.97
24.99
25.56
26.50
27.52
28.38
28.96
29.27
29.33
29.14
28.64
27.75
26.49
24.92
23.21
21.46
19.72
17.91
15.91
13.61
10.95
7.99
4.90
1.87
-0.87
-3.20
-5.16
-6.92
-8.78
-11.03
-13.82
-17.08
-20.59
-24.05
-27.24
-30.09
-32.73
-35.47
-38.66
-42.60
-47.32
-52.50
-57.32
-60.59
-61.09
-57.93
-50.92
-40.72
-28.62
-16.15
-4.62
5.17
13.00
19.02
23.52
26.74
28.85
30.01
30.42
30.37
30.17
30.07
30.18
30.51
30.99
31.53
32.07
32.58
33.02
33.33
33.38
33.05
32.22
30.82
28.91
26.63
24.23
21.92
19.87
18.06
16.36
14.53
12.38
9.84
7.02
4.12
1.39
-0.98
-3.02
-4.91
-6.93
-9.32
-12.18
-15.43
-18.87
-22.24
-25.36
-28.18
-30.79
-33.42
-36.35
-39.87
-44.15
-49.05
-54.01
-57.99
-59.74
-58.15
-52.70
-43.70
-32.22
-19.75
-7.75
2.74
11.25
17.74
22.40
25.45
27.09
27.59
27.26
26.53
25.77
25.27
25.16
25.40
25.86
26.45
27.07
27.71
28.32
28.82
29.09
29.02
28.49
27.47
25.97
24.03
21.75
19.24
16.63
14.04
11.55
9.17
6.90
4.70
2.54
0.39
-1.82
-4.16
-6.69
-9.41
-12.27
-15.17
-18.00
-20.75
-23.46
-26.23
-29.15
-32.32
-35.85
-39.87
-44.47
-49.44
-54.19
-57.71
-58.80
-56.47
-50.35
-40.86
-29.16
-16.75
-5.00
5.14
13.27
19.40
23.79
26.71
28.42
29.22
29.42
29.32
29.22
29.26
29.50
29.85
30.20
30.46
30.58
30.58
30.53
30.46
30.39
30.22
29.81
28.95
27.51
25.49
23.04
20.45
17.98
15.75
13.67
11.53
9.11
6.38
3.51
0.79
-1.50
-3.32
-4.89
-6.61
-8.88
-11.86
-15.43
-19.19
-22.74
-25.80
-28.39
-30.75
-33.25
-36.21
-39.88
-44.29
-49.27
-54.35
-58.77
-61.52
-61.54
-58.08
-51.00
-40.87
-28.85
-16.32
-4.53
5.72
14.07
20.51
25.17
28.21
29.88
30.47
30.38
30.02
29.72
29.64
29.76
29.90
29.93
29.76
29.46
29.14
28.92
28.87
28.94
28.97
28.80
28.24
27.23
25.76
23.92
21.80
19.47
16.93
14.15
11.15
8.00
4.90
2.09
-0.27
-2.14
-3.72
-5.30
-7.24
-9.75
-12.78
-16.14
-19.49
-22.54
-25.17
-27.45
-29.65
-32.17
-35.39
-39.57
-44.65
-50.16
-55.15
-58.37
-58.63
-55.15
-47.90
-37.65
-25.71
-13.57
-2.42
6.98
14.38
19.87
23.68
26.07
27.31
27.62
27.28
26.58
25.77
25.07
24.61
24.46
24.61
24.99
25.49
26.01
26.48
26.82
26.97
26.83
26.29
25.26
23.73
21.77
19.53
17.19
14.89
12.66
10.45
8.19
5.84
3.48
1.19
-0.94
-2.95
-4.99
-7.28
-9.99
-13.13
-16.56
-20.00
-23.19
-26.01
-28.51
-30.94
-33.63
-36.90
-40.95
-45.72
-50.87
-55.64
-59.02
-59.94
-57.59
-51.69
-42.65
-31.46
-19.41
-7.74
2.61
11.19
17.88
22.83
26.20
28.13
28.79
28.46
27.59
26.71
26.28
26.52
27.33
28.34
29.14
29.48
29.39
29.12
28.94
28.95
28.98
28.72
27.90
26.40
24.35
22.05
19.77
17.72
15.94
14.35
12.77
11.01
8.91
6.44
3.69
0.87
-1.76
-4.03
-5.95
-7.72
-9.61
-11.88
-14.62
-17.71
-20.91
-23.96
-26.73
-29.26
-31.83
-34.79
-38.49
-43.08
-48.38
-53.80
-58.39
-61.01
-60.68
-56.83
-49.51
-39.44
-27.73
-15.67
-4.38
5.42
13.37
19.41
23.68
26.36
27.69
27.99
27.66
27.10
26.67
26.59
26.88
27.42
28.07
28.69
29.25
29.74
30.14
30.42
30.48
30.21
29.50
28.32
26.66
24.61
22.27
19.79
17.28
14.84
12.47
10.15
7.82
5.49
3.18
0.96
-1.15
-3.15
-5.16
-7.28
-9.61
-12.15
-14.82
-17.49
-20.05
-22.43
-24.68
-26.97
-29.56
-32.75
-36.78
-41.59
-46.72
-51.26
-54.02
-53.90
-50.25
-43.18
-33.51
-22.51
-11.47
-1.42
7.11
13.96
19.18
22.85
25.06
25.90
25.64
24.68
23.51
22.54
22.06
22.08
22.50
23.11
23.78
24.44
25.08
25.66
26.04
26.03
25.44
24.29
22.75
21.11
19.58
18.20
16.76
15.02
12.78
10.11
7.23
4.40
1.81
-0.55
-2.77
-4.97
-7.20
-9.47
-11.82
-14.32
-17.07
-20.09
-23.27
-26.42
-29.35
-32.05
-34.75
-37.83
-41.61
-46.05
-50.60
-54.24
-55.77
-54.22
-49.19
-41.01
-30.63
-19.34
-8.34
1.45
9.59
15.97
20.69
23.95
25.95
26.92
27.14
26.92
26.58
26.34
26.28
26.35
26.45
26.52
26.61
26.81
27.26
27.95
28.68
29.16
29.05
28.15
26.46
24.21
21.77
19.47
17.54
15.97
14.61
13.17
11.43
9.28
6.75
4.02
1.30
-1.27
-3.66
-5.95
-8.27
-10.73
-13.39
-16.21
-19.11
-22.00
-24.84
-27.65
-30.49
-33.49
-36.81
-40.64
-45.02
-49.71
-54.07
-57.12
-57.75
-55.10
-48.95
-39.78
-28.69
-16.96
-5.76
4.13
12.32
18.67
23.21
26.04
27.38
27.57
27.08
26.38
25.86
25.72
25.98
26.52
27.16
27.75
28.19
28.43
28.50
28.41
28.18
27.73
26.99
25.88
24.38
22.58
20.65
18.74
16.96
15.29
13.62
11.79
9.68
7.27
4.68
2.11
-0.27
-2.39
-4.33
-6.27
-8.42
-10.89
-13.64
-16.50
-19.28
-21.86
-24.25
-26.63
-29.22
-32.24
-35.86
-40.05
-44.52
-48.67
-51.58
-52.24
-49.84
-44.12
-35.49
-25.02
-14.02
-3.71
5.13
12.19
17.56
21.41
23.92
25.19
25.38
24.71
23.54
22.26
21.20
20.58
20.47
20.81
21.46
22.26
23.06
23.75
24.26
24.52
24.45
23.93
22.85
21.24
19.25
17.13
15.14
13.39
11.80
10.12
8.12
5.67
2.89
-0.02
-2.80
-5.34
-7.71
-10.08
-12.67
-15.61
-18.87
-22.29
-25.58
-28.45
-30.70
-32.32
-33.51
-34.66
-36.25
-38.66
-41.92
-45.61
-48.84
-50.45
-49.42
-45.17
-37.83
-28.21
-17.53
-7.06
2.23
9.84
15.72
20.10
23.31
25.61
27.15
27.99
28.22
27.95
27.38
26.74
26.24
25.98
25.99
26.21
26.57
26.98
27.37
27.66
27.71
27.38
26.58
25.32
23.70
21.92
20.15
18.43
16.68
14.76
12.54
10.01
7.25
4.45
1.76
-0.69
-2.87
-4.84
-6.71
-8.62
-10.69
-13.01
-15.61
-18.42
-21.34
-24.21
-26.95
-29.58
-32.23
-35.18
-38.75
-43.09
-48.00
-52.75
-56.24
-57.21
-54.75
-48.60
-39.33
-28.11
-16.36
-5.31
4.24
11.93
17.72
21.74
24.18
25.31
25.48
25.10
24.58
24.25
24.27
24.61
25.14
25.68
26.05
26.19
26.10
25.83
25.46
25.02
24.47
23.78
22.88
21.73
20.32
18.68
16.82
14.73
12.41
9.93
7.35
4.81
2.42
0.25
-1.75
-3.70
-5.72
-7.90
-10.27
-12.77
-15.35
-17.92
-20.44
-22.91
-25.40
-28.04
-31.01
-34.49
-38.57
-42.99
-47.14
-50.06
-50.69
-48.19
-42.31
-33.54
-22.96
-11.91
-1.62
7.15
14.11
19.39
23.21
25.77
27.16
27.43
26.72
25.34
23.72
22.29
21.40
21.18
21.58
22.40
23.38
24.28
24.92
25.19
25.04
24.48
23.60
22.49
21.20
19.74
18.04
16.01
13.58
10.82
7.87
4.99
2.35
0.04
-1.98
-3.88
-5.83
-7.97
-10.32
-12.86
-15.54
-18.27
-21.00
-23.67
-26.28
-28.89
-31.62
-34.66
-38.26
-42.55
-47.36
-52.13
-55.90
-57.52
-56.05
-51.07
-42.92
-32.58
-21.34
-10.41
-0.59
7.72
14.44
19.65
23.39
25.73
26.82
26.94
26.48
25.82
25.27
24.92
24.75
24.66
24.58
24.52
24.54
24.68
24.87
24.95
24.67
23.80
22.23
20.05
17.52
14.97
12.65
10.63
8.76
6.71
4.16
0.94
-2.89
-7.04
-11.08
-14.62
-17.49
-19.76
-21.74
-23.88
-26.65
-30.37
-35.08
-40.38
-45.42
-49.00
-49.94
-47.40
-41.23
-32.07
-21.18
-10.04
0.08
8.42
14.81
19.48
22.79
25.00
26.20
26.41
25.67
24.19
22.37
20.66
19.42
18.79
18.67
18.80
18.89
18.71
18.27
17.63
16.91
16.12
15.10
13.59
11.37
8.39
4.84
1.09
-2.43
-5.41
-7.82
-9.85
-11.87
-14.28
-17.39
-21.37
-26.18
-31.47
-36.54
-40.41
-42.03
-40.61
-35.90
-28.31
-18.81
-8.64
1.11
9.69
16.78
22.34
26.45
29.18
30.54
30.63
29.71
28.21
26.65
25.48
24.96
25.12
25.78
26.67
27.56
28.31
28.85
29.15
29.16
28.84
28.16
27.07
25.60
23.78
21.70
19.50
17.34
15.37
13.68
12.22
10.80
9.20
7.25
4.94
2.44
0.01
-2.15
-3.94
-5.47
-6.99
-8.80
-11.13
-14.08
-17.55
-21.26
-24.88
-28.10
-30.79
-33.01
-35.11
-37.55
-40.82
-45.19
-50.52
-56.13
-60.89
-63.47
-62.75
-58.17
-49.97
-39.07
-26.77
-14.40
-3.01
6.79
14.72
20.76
24.99
27.58
28.79
28.97
28.57
28.03
27.70
27.76
28.17
28.77
29.32
29.69
29.88
29.99
30.14
30.38
30.62
30.68
30.35
29.52
28.16
26.40
24.42
22.41
20.50
18.71
16.95
15.08
12.98
10.61
8.02
5.38
2.88
0.67
-1.21
-2.84
-4.39
-6.11
-8.24
-10.91
-14.06
-17.45
-20.75
-23.65
-26.04
-28.05
-30.03
-32.36
-35.39
-39.30
-43.98
-48.99
-53.57
-56.67
-57.23
-54.47
-48.19
-38.87
-27.62
-15.81
-4.70
4.88
12.56
18.39
22.55
25.24
26.62
26.88
26.29
25.24
24.18
23.48
23.32
23.61
24.08
24.46
24.61
24.61
24.67
24.99
25.52
26.00
26.03
25.28
23.69
21.46
18.99
16.62
14.53
12.67
10.89
9.02
7.01
4.89
2.78
0.77
-1.09
-2.83
-4.64
-6.68
-9.16
-12.11
-15.41
-18.75
-21.80
-24.33
-26.36
-28.16
-30.18
-32.84
-36.39
-40.80
-45.62
-50.10
-53.20
-53.90
-51.49
-45.81
-37.33
-27.02
-16.04
-5.46
3.99
11.92
18.15
22.60
25.31
26.41
26.20
25.18
23.90
22.85
22.28
22.22
22.54
23.02
23.53
24.04
24.56
25.11
25.66
26.08
26.20
25.86
24.99
23.62
21.87
19.90
17.88
15.91
14.02
12.16
10.23
8.10
5.69
3.04
0.29
-2.38
-4.84
-7.08
-9.22
-11.46
-13.93
-16.67
-19.60
-22.56
-25.42
-28.14
-30.76
-33.42
-36.36
-39.80
-43.86
-48.40
-52.84
-56.23
-57.43
-55.48
-49.98
-41.28
-30.36
-18.58
-7.22
2.82
11.10
17.58
22.42
25.83
27.98
28.99
29.03
28.36
27.35
26.40
25.85
25.84
26.24
26.80
27.27
27.55
27.68
27.80
27.96
28.08
27.93
27.30
26.07
24.34
22.32
20.24
18.27
16.38
14.44
12.25
9.72
6.88
3.92
1.11
-1.34
-3.39
-5.19
-7.02
-9.12
-11.59
-14.36
-17.24
-20.04
-22.67
-25.16
-27.66
-30.40
-33.66
-37.62
-42.25
-47.15
-51.46
-54.05
-53.86
-50.22
-43.17
-33.44
-22.23
-10.87
-0.46
8.26
14.95
19.58
22.34
23.55
23.66
23.13
22.42
21.83
21.55
21.63
22.01
22.58
23.21
23.80
24.29
24.67
24.98
25.24
25.39
25.30
24.84
23.92
22.52
20.75
18.73
16.59
14.40
12.18
9.97
7.80
5.77
3.97
2.38
0.88
-0.81
-2.97
-5.76
-9.13
-12.77
-16.26
-19.23
-21.55
-23.40
-25.16
-27.28
-30.09
-33.71
-38.07
-42.84
-47.50
-51.26
-53.18
-52.38
-48.33
-41.09
-31.37
-20.32
-9.19
1.01
9.69
16.62
21.82
25.35
27.39
28.13
27.95
27.26
26.46
25.84
25.51
25.46
25.63
25.96
26.38
26.83
27.23
27.51
27.65
27.60
27.34
26.80
25.92
24.63
23.00
21.15
19.24
17.36
15.50
13.53
11.32
8.78
6.02
3.24
0.74
-1.32
-2.93
-4.31
-5.83
-7.80
-10.40
-13.54
-16.95
-20.23
-23.12
-25.53
-27.59
-29.62
-31.98
-34.98
-38.83
-43.51
-48.67
-53.56
-57.12
-58.18
-55.86
-49.89
-40.73
-29.52
-17.68
-6.51
3.12
10.88
16.83
21.23
24.33
26.28
27.21
27.29
26.82
26.19
25.77
25.79
26.24
26.96
27.71
28.34
28.82
29.22
29.56
29.80
29.74
29.21
28.11
26.47
24.49
22.39
20.37
18.53
16.85
15.21
13.47
11.51
9.26
6.79
4.26
1.84
-0.32
-2.19
-3.94
-5.84
-8.15
-10.96
-14.15
-17.39
-20.33
-22.76
-24.71
-26.47
-28.47
-31.13
-34.69
-39.17
-44.23
-49.16
-52.96
-54.50
-52.87
-47.73
-39.45
-29.08
-17.94
-7.26
2.15
9.94
16.06
20.56
23.50
24.91
24.99
24.10
22.77
21.49
20.62
20.29
20.46
20.96
21.64
22.41
23.20
24.01
24.81
25.56
26.14
26.34
25.95
24.86
23.08
20.84
18.47
16.25
14.33
12.62
10.89
8.91
6.60
4.06
1.52
-0.81
-2.84
-4.63
-6.38
-8.30
-10.56
-13.19
-16.14
-19.20
-22.17
-24.90
-27.33
-29.57
-31.89
-34.61
-38.05
-42.29
-47.09
-51.73
-55.16
-56.23
-54.06
-48.36
-39.60
-28.83
-17.37
-6.37
3.37
11.48
17.85
22.49
25.49
27.02
27.43
27.20
26.80
26.58
26.65
26.93
27.24
27.43
27.45
27.38
27.29
27.30
27.43
27.64
27.86
27.91
27.60
26.75
25.25
23.16
20.66
18.08
15.72
13.79
12.27
10.98
9.59
7.81
5.55
2.91
0.20
-2.25
-4.28
-5.96
-7.56
-9.46
-11.91
-14.94
-18.34
-21.79
-25.00
-27.80
-30.22
-32.41
-34.70
-37.42
-40.87
-45.14
-49.91
-54.40
-57.49
-57.98
-55.07
-48.61
-39.26
-28.20
-16.78
-6.17
2.97
10.36
16.08
20.30
23.19
24.93
25.72
25.82
25.53
25.08
24.64
24.28
24.03
23.91
23.96
24.27
24.88
25.73
26.71
27.56
28.02
27.84
26.94
25.38
23.37
21.18
19.03
17.00
15.04
13.00
10.81
8.44
6.00
3.63
1.43
-0.54
-2.31
-4.02
-5.79
-7.77
-10.05
-12.60
-15.31
-18.03
-20.62
-23.05
-25.39
-27.81
-30.53
-33.75
-37.57
-41.88
-46.25
-49.91
-51.85
-51.10
-47.06
-39.79
-30.05
-19.06
-8.15
1.64
9.74
16.04
20.69
23.91
25.83
26.55
26.21
25.09
23.61
22.23
21.32
20.99
21.17
21.66
22.27
22.96
23.76
24.67
25.59
26.24
26.30
25.59
24.12
22.13
19.99
17.98
16.23
14.62
12.95
11.04
8.80
6.29
3.65
1.04
-1.40
-3.67
-5.83
-8.04
-10.44
-13.06
-15.86
-18.72
-21.54
-24.30
-27.03
-29.82
-32.73
-35.85
-39.27
-43.08
-47.26
-51.49
-55.08
-57.02
-56.28
-52.23
-44.91
-35.08
-23.94
-12.70
-2.27
6.84
14.40
20.34
24.61
27.21
28.31
28.26
27.54
26.62
25.88
25.49
25.45
25.69
26.10
26.63
27.25
27.92
28.61
29.23
29.66
29.75
29.37
28.46
27.03
25.20
23.17
21.10
19.10
17.14
15.14
12.97
10.54
7.89
5.18
2.58
0.24
-1.82
-3.74
-5.70
-7.90
-10.42
-13.26
-16.30
-19.41
-22.42
-25.25
-27.87
-30.41
-33.12
-36.34
-40.35
-45.14
-50.26
-54.78
-57.47
-57.23
-53.39
-46.06
-36.07
-24.68
-13.20
-2.64
6.41
13.76
19.41
23.42
25.87
26.88
26.69
25.71
24.47
23.45
22.97
23.12
23.71
24.44
25.01
25.24
25.12
24.74
24.26
23.76
23.21
22.44
21.26
19.54
17.28
14.68
12.05
9.64
7.51
5.54
3.42
0.92
-2.06
-5.36
-8.72
-11.86
-14.64
-17.09
-19.33
-21.54
-23.92
-26.73
-30.20
-34.48
-39.41
-44.44
-48.59
-50.68
-49.72
-45.23
-37.44
-27.26
-16.00
-4.98
4.79
12.78
18.84
23.15
25.92
27.35
27.67
27.10
25.96
24.63
23.40
22.45
21.80
21.38
21.13
21.05
21.19
21.55
22.01
22.33
22.22
21.42
19.79
17.42
14.54
11.45
8.40
5.49
2.64
-0.28
-3.43
-6.80
-10.26
-13.61
-16.70
-19.55
-22.33
-25.30
-28.74
-32.79
-37.40
-42.21
-46.57
-49.56
-50.21
-47.79
-42.06
-33.44
-22.85
-11.48
-0.48
9.32
17.46
23.76
28.25
31.06
32.42
32.66
32.19
31.40
30.63
30.06
29.76
29.70
29.81
30.00
30.22
30.42
30.57
30.69
30.76
30.77
30.61
30.13
29.14
27.56
25.46
23.05
20.64
18.42
16.49
14.76
13.07
11.27
9.27
7.09
4.76
2.38
0.02
-2.23
-4.30
-6.18
-7.98
-9.90
-12.19
-14.98
-18.26
-21.81
-25.33
-28.55
-31.37
-33.87
-36.35
-39.17
-42.69
-47.08
-52.20
-57.51
-62.05
-64.61
-64.05
-59.63
-51.37
-40.04
-27.02
-13.84
-1.83
8.18
15.91
21.46
25.14
27.29
28.22
28.25
27.72
27.02
26.45
26.23
26.40
26.80
27.22
27.50
27.64
27.78
28.14
28.81
29.68
30.40
30.53
29.76
28.02
25.57
22.82
20.19
17.86
15.82
13.87
11.75
9.36
6.74
4.06
1.52
-0.71
-2.64
-4.38
-6.11
-8.02
-10.26
-12.83
-15.63
-18.53
-21.35
-24.03
-26.58
-29.14
-31.96
-35.34
-39.49
-44.39
-49.59
-54.21
-57.04
-56.92
-53.10
-45.58
-35.12
-23.06
-10.85
0.31
9.72
17.14
22.65
26.41
28.54
29.21
28.63
27.22
25.51
24.05
23.21
23.11
23.60
24.39
25.19
25.87
26.41
26.92
27.46
27.96
28.27
28.12
27.35
25.89
23.83
21.38
18.79
16.27
13.94
11.76
9.65
7.50
5.29
3.04
0.88
-1.12
-2.95
-4.76
-6.75
-9.18
-12.16
-15.67
-19.47
-23.23
-26.61
-29.43
-31.74
-33.79
-36.03
-38.90
-42.74
-47.61
-53.21
-58.76
-63.17
-65.18
-63.73
-58.32
-49.22
-37.44
-24.44
-11.71
-0.40
8.91
16.15
21.54
25.33
27.74
28.91
29.05
28.50
27.72
27.18
27.19
27.80
28.80
29.82
30.55
30.89
30.93
30.91
31.02
31.26
31.43
31.23
30.40
28.89
26.84
24.51
22.18
19.98
17.90
15.84
13.67
11.35
8.90
6.42
3.99
1.75
-0.25
-2.00
-3.65
-5.41
-7.60
-10.45
-14.03
-18.17
-22.49
-26.51
-29.88
-32.49
-34.54
-36.49
-38.88
-42.19
-46.62
-51.99
-57.58
-62.29
-64.79
-63.93
-59.09
-50.44
-38.90
-25.89
-12.94
-1.22
8.55
16.19
21.77
25.53
27.72
28.61
28.58
28.05
27.46
27.08
27.05
27.28
27.63
27.99
28.38
28.88
29.60
30.53
31.53
32.30
32.55
32.04
30.75
28.85
26.63
24.37
22.20
20.15
18.09
15.84
13.30
10.47
7.41
4.32
1.39
-1.16
-3.24
-4.95
-6.52
-8.30
-10.60
-13.56
-17.01
-20.63
-24.05
-27.03
-29.62
-32.11
-34.92
-38.47
-42.93
-48.13
-53.42
-57.74
-59.87
-58.74
-53.78
-45.19
-33.88
-21.26
-8.74
2.55
11.99
19.42
24.92
28.69
30.86
31.63
31.26
30.17
28.86
27.78
27.21
27.24
27.77
28.59
29.51
30.41
31.21
31.89
32.44
32.77
32.78
32.31
31.22
29.47
27.15
24.48
21.74
19.16
16.80
14.53
12.13
9.41
6.34
3.15
0.19
-2.19
-3.87
-5.05
-6.19
-7.87
-10.48
-14.03
-18.22
-22.54
-26.49
-29.82
-32.61
-35.13
-37.80
-41.00
-44.97
-49.76
-55.06
-60.19
-64.12
-65.61
-63.66
-57.81
-48.38
-36.43
-23.42
-10.78
0.47
9.81
17.19
22.82
26.94
29.75
31.43
32.18
32.29
32.06
31.81
31.71
31.83
32.11
32.45
32.78
33.07
33.38
33.76
34.18
34.50
34.51
33.99
32.80
30.96
28.62
26.00
23.35
20.83
18.56
16.50
14.54
12.49
10.16
7.48
4.53
1.55
-1.16
-3.45
-5.35
-7.14
-9.18
-11.78
-14.99
-18.64
-22.40
-25.90
-28.94
-31.51
-33.80
-36.10
-38.80
-42.26
-46.70
-52.00
-57.56
-62.27
-64.74
-63.73
-58.58
-49.55
-37.74
-24.75
-12.17
-1.12
7.95
15.07
20.54
24.63
27.48
29.13
29.67
29.32
28.49
27.61
27.03
26.91
27.24
27.85
28.59
29.35
30.10
30.83
31.50
31.95
32.00
31.44
30.17
28.23
25.86
23.36
21.03
19.02
17.27
15.54
13.57
11.14
8.26
5.13
2.08
-0.65
-2.91
-4.78
-6.49
-8.32
-10.55
-13.35
-16.70
-20.44
-24.26
-27.83
-30.95
-33.66
-36.25
-39.18
-42.92
-47.69
-53.27
-58.89
-63.32
-65.19
-63.35
-57.33
-47.53
-35.13
-21.73
-8.87
2.36
11.49
18.57
23.89
27.76
30.38
31.82
32.17
31.70
30.81
30.01
29.71
30.06
30.96
32.06
33.05
33.70
34.04
34.18
34.27
34.30
34.14
33.60
32.50
30.77
28.48
25.80
22.98
20.29
17.93
15.96
14.27
12.64
10.79
8.59
6.09
3.50
1.07
-1.06
-2.97
-4.89
-7.10
-9.80
-13.04
-16.65
-20.40
-24.01
-27.25
-30.06
-32.46
-34.66
-36.92
-39.60
-43.07
-47.57
-53.11
-59.22
-64.92
-68.84
-69.56
-66.11
-58.33
-47.03
-33.70
-20.07
-7.57
3.00
11.44
18.01
23.09
26.98
29.82
31.63
32.41
32.31
31.61
30.69
29.99
29.79
30.16
30.94
31.87
32.68
33.25
33.61
33.81
33.80
33.44
32.50
30.87
28.63
26.03
23.46
21.18
19.28
17.63
15.97
14.03
11.66
8.89
5.91
2.99
0.39
-1.77
-3.53
-5.13
-6.89
-9.10
-11.94
-15.33
-19.04
-22.76
-26.19
-29.17
-31.75
-34.11
-36.60
-39.61
-43.46
-48.22
-53.53
-58.56
-62.07
-62.79
-59.87
-53.13
-43.26
-31.51
-19.30
-7.79
2.38
10.99
18.06
23.61
27.64
30.14
31.23
31.25
30.63
29.82
29.14
28.77
28.74
29.05
29.63
30.37
31.17
31.88
32.41
32.65
32.49
31.88
30.71
28.96
26.74
24.24
21.76
19.53
17.67
16.05
14.42
12.49
10.07
7.17
4.02
0.95
-1.69
-3.75
-5.29
-6.64
-8.22
-10.41
-13.37
-17.00
-20.96
-24.85
-28.36
-31.42
-34.17
-36.91
-40.01
-43.81
-48.45
-53.79
-59.22
-63.72
-66.03
-65.00
-60.02
-51.27
-39.67
-26.67
-13.75
-2.06
7.79
15.61
21.55
25.82
28.68
30.34
31.04
31.11
30.88
30.68
30.74
31.13
31.77
32.47
33.04
33.35
33.44
33.42
33.39
33.36
33.24
32.86
32.03
30.67
28.80
26.56
24.12
21.71
19.48
17.51
15.75
14.10
12.40
10.53
8.44
6.16
3.76
1.36
-1.01
-3.36
-5.74
-8.25
-10.96
-13.91
-17.10
-20.42
-23.72
-26.86
-29.71
-32.29
-34.75
-37.41
-40.68
-44.88
-50.09
-55.94
-61.52
-65.52
-66.58
-63.73
-56.76
-46.33
-33.79
-20.70
-8.42
2.20
10.83
17.52
22.46
25.88
27.97
28.93
29.06
28.67
28.05
27.48
27.15
27.14
27.46
28.02
28.70
29.38
30.00
30.54
31.00
31.28
31.19
30.52
29.11
27.00
24.44
21.79
19.42
17.48
15.86
14.30
12.49
10.24
7.57
4.67
1.76
-1.00
-3.58
-6.02
-8.38
-10.70
-12.95
-15.18
-17.44
-19.86
-22.51
-25.39
-28.42
-31.52
-34.73
-38.28
-42.43
-47.27
-52.43
-57.02
-59.73
-59.29
-54.94
-46.75
-35.68
-23.22
-10.93
-0.02
8.93
15.89
21.13
24.93
27.49
28.88
29.14
28.49
27.33
26.11
25.26
24.98
25.22
25.76
26.36
26.89
27.33
27.71
28.05
28.26
28.19
27.66
26.61
25.07
23.19
21.11
18.99
16.90
14.88
12.94
11.01
9.01
6.84
4.43
1.82
-0.86
-3.42
-5.72
-7.76
-9.69
-11.79
-14.27
-17.19
-20.41
-23.65
-26.68
-29.41
-31.97
-34.63
-37.71
-41.51
-46.16
-51.46
-56.82
-61.26
-63.57
-62.66
-57.94
-49.54
-38.33
-25.63
-12.85
-1.11
8.88
16.83
22.73
26.77
29.23
30.45
30.84
30.74
30.44
30.13
29.90
29.76
29.68
29.62
29.58
29.59
29.75
30.11
30.64
31.19
31.49
31.23
30.21
28.39
25.97
23.32
20.84
18.79
17.17
15.76
14.16
12.04
9.29
6.06
2.73
-0.27
-2.70
-4.54
-6.04
-7.54
-9.37
-11.71
-14.54
-17.69
-20.91
-23.93
-26.58
-28.84
-30.87
-32.95
-35.50
-38.88
-43.32
-48.62
-54.11
-58.64
-60.86
-59.67
-54.56
-45.89
-34.72
-22.51
-10.59
0.06
8.95
15.93
21.00
24.29
25.98
26.44
26.14
25.54
24.99
24.60
24.33
24.08
23.84
23.69
23.77
24.18
24.88
25.74
26.56
27.18
27.48
27.39
26.81
25.67
23.90
21.52
18.66
15.55
12.46
9.58
7.02
4.73
2.60
0.52
-1.58
-3.72
-5.95
-8.31
-10.90
-13.75
-16.82
-19.98
-23.01
-25.75
-28.19
-30.48
-32.92
-35.93
-39.84
-44.76
-50.35
-55.82
-59.97
-61.49
-59.36
-53.26
-43.67
-31.79
-19.14
-7.10
3.39
11.96
18.57
23.35
26.47
28.08
28.45
27.93
27.00
26.15
25.69
25.71
26.09
26.57
26.91
26.97
26.82
26.61
26.51
26.59
26.74
26.71
26.18
24.91
22.80
19.99
16.74
13.41
10.26
7.42
4.85
2.33
-0.39
-3.47
-6.98
-10.79
-14.66
-18.32
-21.53
-24.25
-26.58
-28.83
-31.37
-34.61
-38.81
-43.91
-49.44
-54.51
-57.93
-58.54
-55.56
-48.89
-39.16
-27.55
-15.45
-4.06
5.83
13.90
20.17
24.79
27.93
29.69
30.22
29.73
28.57
27.17
25.95
25.19
24.95
25.10
25.43
25.67
25.67
25.37
24.78
23.95
22.93
21.74
20.34
18.66
16.57
13.95
10.75
7.01
2.93
-1.24
-5.25
-8.92
-12.22
-15.22
-18.10
-21.05
-24.31
-28.09
-32.56
-37.63
-42.91
-47.60
-50.66
-51.01
-47.92
-41.26
-31.60
-20.08
-8.11
3.02
12.43
19.72
24.90
28.23
30.05
30.65
30.30
29.27
27.88
26.45
25.27
24.53
24.26
24.35
24.65
24.95
25.11
25.00
24.54
23.70
22.49
20.93
19.08
17.00
14.71
12.14
9.20
5.82
1.96
-2.24
-6.54
-10.63
-14.23
-17.28
-19.91
-22.46
-25.34
-28.89
-33.29
-38.40
-43.72
-48.40
-51.33
-51.39
-47.81
-40.53
-30.24
-18.30
-6.25
4.65
13.70
20.82
26.30
30.43
33.34
35.02
35.49
34.95
33.86
32.78
32.11
31.97
32.18
32.39
32.28
31.72
30.80
29.77
28.94
28.56
28.73
29.37
30.21
30.80
30.58
29.05
25.90
21.19
15.41
9.32
3.80
-0.48
-3.25
-4.70
-5.37
-5.92
-6.87
-8.49
-10.72
-13.34
-16.09
-18.85
-21.60
-24.47
-27.51
-30.70
-33.89
-36.86
-39.46
-41.63
-43.50
-45.28
-47.23
-49.59
-52.59
-56.30
-60.61
-65.02
-68.66
-70.43
-69.28
-64.59
-56.39
-45.43
-32.92
-20.16
-8.22
2.25
10.96
17.90
23.19
26.98
29.45
30.82
31.38
31.43
31.26
31.14
31.26
31.69
32.38
33.23
34.11
34.90
35.54
35.98
36.19
36.07
35.53
34.53
33.09
31.34
29.45
27.60
25.91
24.42
23.07
21.78
20.42
18.86
17.04
14.96
12.76
10.66
8.86
7.47
6.36
5.29
3.90
1.97
-0.52
-3.31
-5.98
-8.16
-9.64
-10.55
-11.25
-12.29
-14.22
-17.44
-22.05
-27.74
-33.73
-38.85
-41.83
-41.71
-38.14
-31.57
-23.05
-13.92
-5.35
1.91
7.57
11.66
14.34
15.78
16.12
15.61
14.64
13.65
13.03
13.02
13.59
14.53
15.57
16.43
16.99
17.19
17.12
16.87
16.55
16.21
15.85
15.39
14.71
13.72
12.43
10.96
9.47
8.13
6.93
5.72
4.28
2.39
0.03
-2.61
-5.20
-7.41
-9.08
-10.29
-11.32
-12.53
-14.20
-16.41
-19.02
-21.77
-24.39
-26.73
-28.80
-30.80
-33.01
-35.77
-39.34
-43.76
-48.81
-53.86
-57.98
-60.07
-59.18
-54.84
-47.29
-37.40
-26.43
-15.65
-5.97
2.17
8.78
14.06
18.22
21.38
23.57
24.83
25.34
25.40
25.38
25.59
26.19
27.10
28.13
29.06
29.74
30.18
30.50
30.81
31.17
31.53
31.77
31.78
31.58
31.27
31.03
31.04
31.31
31.73
32.03
31.93
31.23
29.86
27.94
25.72
23.48
21.40
19.61
18.17
17.12
16.58
16.71
17.68
19.52
22.07
24.87
27.28
28.59
28.19
25.78
21.35
15.14
7.55
-1.09
-10.42
-20.02
-29.25
-37.15
-42.69
-44.98
-43.66
-39.02
-31.94
-23.57
-14.97
-6.90
0.20
6.10
10.64
13.71
15.32
15.66
15.11
14.13
13.08
12.16
11.42
10.83
10.37
10.10
10.09
10.40
10.95
11.61
12.17
12.46
12.36
11.86
11.00
9.85
8.46
6.90
5.22
3.52
1.85
0.26
-1.34
-3.07
-5.05
-7.32
-9.78
-12.22
-14.39
-16.17
-17.64
-19.03
-20.64
-22.66
-25.08
-27.72
-30.30
-32.66
-34.79
-36.87
-39.17
-41.97
-45.41
-49.42
-53.66
-57.48
-59.99
-60.27
-57.63
-51.90
-43.48
-33.30
-22.49
-12.07
-2.71
5.21
11.60
16.39
19.58
21.22
21.51
20.81
19.68
18.62
18.04
18.11
18.76
19.75
20.80
21.75
22.57
23.32
24.02
24.60
24.86
24.59
23.66
22.16
20.33
18.45
16.73
15.22
13.78
12.17
10.19
7.73
4.89
1.91
-0.88
-3.27
-5.16
-6.71
-8.20
-9.92
-12.04
-14.59
-17.42
-20.39
-23.32
-26.14
-28.82
-31.41
-34.09
-37.12
-40.73
-45.04
-49.81
-54.36
-57.74
-58.91
-57.05
-51.87
-43.63
-33.14
-21.47
-9.79
0.96
10.12
17.45
22.95
26.86
29.44
30.96
31.67
31.77
31.51
31.09
30.72
30.51
30.49
30.67
31.04
31.60
32.33
33.19
34.07
34.79
35.13
34.89
33.97
32.41
30.40
28.22
26.18
24.43
22.96
21.57
20.00
18.02
15.61
12.95
10.39
8.25
6.65
5.42
4.17
2.44
-0.08
-3.37
-7.15
-11.07
-14.88
-18.63
-22.57
-27.00
-32.13
-37.99
-44.44
-51.20
-57.82
-63.61
-67.65
-68.97
-66.78
-60.91
-51.92
-40.98
-29.52
-18.79
-9.53
-1.95
4.12
8.91
12.59
15.19
16.76
17.42
17.49
17.39
17.53
18.17
19.32
20.79
22.28
23.57
24.58
25.34
25.99
26.59
27.08
27.29
27.01
26.09
24.51
22.33
19.69
16.76
13.70
10.68
7.82
5.16
2.67
0.19
-2.43
-5.34
-8.59
-12.10
-15.72
-19.27
-22.62
-25.71
-28.59
-31.45
-34.55
-38.22
-42.66
-47.78
-53.07
-57.64
-60.40
-60.38
-57.02
-50.34
-40.91
-29.71
-17.88
-6.48
3.66
12.04
18.42
22.79
25.28
26.16
25.72
24.37
22.52
20.62
18.98
17.78
16.99
16.44
15.91
15.20
14.26
13.11
11.89
10.68
9.48
8.17
6.53
4.32
1.39
-2.29
-6.54
-11.08
-15.65
-20.02
-24.09
-27.83
-31.29
-34.62
-38.09
-41.99
-46.52
-51.53
-56.34
-59.86
-60.83
-58.25
-51.79
-41.90
-29.66
-16.41
-3.40
8.44
18.61
26.83
33.02
37.21
39.50
40.18
39.67
38.46
37.05
35.79
34.89
34.42
34.29
34.39
34.56
34.66
34.60
34.31
33.75
32.89
31.64
29.89
27.59
24.75
21.52
18.13
14.78
11.51
8.15
4.48
0.36
-4.17
-8.81
-13.25
-17.32
-21.12
-25.02
-29.48
-34.81
-40.94
-47.28
-52.76
-56.06
-55.98
-51.84
-43.70
-32.41
-19.35
-5.99
6.44
17.24
26.11
33.02
38.01
41.06
42.24
41.73
39.95
37.49
35.03
33.12
32.08
31.91
32.28
32.72
32.73
32.02
30.60
28.77
26.89
25.19
23.63
21.88
19.53
16.31
12.22
7.57
2.82
-1.64
-5.62
-9.20
-12.59
-16.08
-19.95
-24.37
-29.41
-34.87
-40.25
-44.64
-46.94
-46.09
-41.47
-33.13
-21.87
-9.05
3.82
15.45
24.98
32.08
36.73
39.14
39.58
38.37
35.93
32.78
29.52
26.67
24.57
23.32
22.77
22.59
22.43
21.95
20.99
19.51
17.58
15.37
13.00
10.52
7.89
5.00
1.72
-2.05
-6.24
-10.66
-15.03
-19.10
-22.76
-26.08
-29.29
-32.66
-36.46
-40.84
-45.86
-51.32
-56.73
-61.21
-63.59
-62.68
-57.66
-48.47
-35.92
-21.49
-6.92
6.34
17.37
25.91
32.08
36.19
38.52
39.29
38.76
37.30
35.38
33.55
32.24
31.64
31.66
32.02
32.34
32.41
32.18
31.77
31.37
31.03
30.68
30.12
29.12
27.60
25.59
23.23
20.69
18.10
15.57
13.16
10.93
8.87
6.88
4.78
2.38
-0.40
-3.47
-6.61
-9.57
-12.25
-14.74
-17.27
-20.10
-23.35
-26.94
-30.63
-34.13
-37.28
-40.04
-42.56
-45.05
-47.78
-51.01
-54.97
-59.81
-65.34
-70.94
-75.47
-77.50
-75.67
-69.23
-58.34
-44.12
-28.31
-12.75
1.17
12.72
21.78
28.56
33.33
36.25
37.48
37.27
36.09
34.58
33.35
32.80
32.99
33.70
34.59
35.36
35.89
36.22
36.44
36.58
36.56
36.20
35.37
33.99
32.11
29.85
27.35
24.68
21.84
18.81
15.59
12.20
8.77
5.41
2.23
-0.75
-3.57
-6.34
-9.21
-12.27
-15.56
-19.02
-22.51
-25.89
-29.00
-31.80
-34.36
-36.88
-39.69
-43.17
-47.57
-52.83
-58.37
-63.10
-65.60
-64.57
-59.31
-50.02
-37.78
-24.17
-10.80
1.14
11.04
18.74
24.34
27.98
29.81
30.01
28.93
27.04
24.85
22.84
21.28
20.29
19.81
19.73
19.91
20.23
20.60
21.00
21.40
21.74
21.92
21.81
21.28
20.30
18.97
17.46
15.93
14.43
12.83
10.90
8.47
5.52
2.28
-0.87
-3.61
-5.80
-7.65
-9.52
-11.83
-14.76
-18.24
-21.95
-25.49
-28.58
-31.21
-33.61
-36.16
-39.33
-43.44
-48.55
-54.33
-59.96
-64.23
-65.80
-63.63
-57.28
-47.14
-34.33
-20.33
-6.57
5.83
16.22
24.32
30.10
33.72
35.45
35.71
35.05
34.05
33.11
32.47
32.08
31.75
31.33
30.81
30.31
30.03
30.08
30.38
30.67
30.60
29.84
28.24
25.81
22.73
19.28
15.76
12.41
9.35
6.51
3.64
0.47
-3.24
-7.48
-12.07
-16.64
-20.88
-24.62
-27.94
-31.15
-34.70
-38.94
-43.95
-49.33
-54.17
-57.21
-57.15
-53.16
-45.17
-33.98
-21.02
-7.87
4.16
14.33
22.40
28.44
32.58
34.83
35.26
34.06
31.69
28.84
26.23
24.38
23.48
23.33
23.50
23.55
23.21
22.47
21.50
20.51
19.56
18.50
16.98
14.65
11.37
7.26
2.73
-1.77
-5.89
-9.58
-13.02
-16.53
-20.42
-24.89
-29.97
-35.47
-40.96
-45.64
-48.49
-48.43
-44.73
-37.30
-26.82
-14.63
-2.29
8.86
18.01
24.96
29.86
33.04
34.71
34.96
33.87
31.68
28.82
25.91
23.55
22.12
21.67
21.90
22.33
22.51
22.17
21.33
20.19
18.94
17.62
16.08
14.02
11.16
7.41
2.92
-1.93
-6.67
-10.96
-14.69
-18.02
-21.31
-24.96
-29.28
-34.41
-40.19
-46.18
-51.60
-55.44
-56.62
-54.33
-48.29
-38.89
-27.14
-14.37
-1.86
9.46
19.10
26.89
32.81
36.88
39.18
39.89
39.37
38.12
36.63
35.29
34.34
33.88
33.91
34.31
34.92
35.51
35.89
35.95
35.71
35.30
34.79
34.17
33.30
31.95
29.99
27.43
24.50
21.48
18.66
16.13
13.86
11.66
9.31
6.71
3.89
1.03
-1.61
-3.84
-5.68
-7.34
-9.19
-11.61
-14.80
-18.72
-23.07
-27.44
-31.46
-34.88
-37.68
-40.04
-42.28
-44.83
-48.15
-52.61
-58.25
-64.55
-70.40
-74.20
-74.34
-69.72
-60.24
-46.86
-31.36
-15.73
-1.63
9.99
18.91
25.41
29.93
32.84
34.41
34.86
34.50
33.73
32.96
32.50
32.51
32.93
33.58
34.26
34.79
35.09
35.15
34.98
34.64
34.13
33.38
32.28
30.70
28.66
26.30
23.89
21.65
19.64
17.69
15.50
12.83
9.67
6.29
3.09
0.39
-1.74
-3.50
-5.32
-7.55
-10.36
-13.66
-17.18
-20.61
-23.72
-26.42
-28.77
-30.95
-33.22
-35.88
-39.25
-43.48
-48.46
-53.64
-57.97
-60.16
-59.03
-53.90
-44.95
-33.16
-20.04
-7.18
4.21
13.46
20.44
25.31
28.33
29.70
29.62
28.39
26.42
24.26
22.46
21.44
21.36
22.11
23.41
24.87
26.16
27.08
27.54
27.58
27.27
26.66
25.72
24.43
22.73
20.64
18.25
15.67
13.01
10.33
7.67
5.07
2.55
0.16
-2.11
-4.32
-6.61
-9.13
-11.96
-15.09
-18.36
-21.60
-24.67
-27.52
-30.17
-32.74
-35.38
-38.36
-41.98
-46.48
-51.80
-57.34
-61.92
-64.05
-62.43
-56.49
-46.66
-34.26
-20.98
-8.38
2.56
11.48
18.48
23.78
27.51
29.75
30.55
30.14
28.91
27.37
26.00
25.14
24.88
25.15
25.70
26.29
26.74
26.94
26.89
26.61
26.12
25.38
24.31
22.85
20.94
18.59
15.89
12.98
10.01
7.14
4.41
1.77
-0.91
-3.79
-6.97
-10.41
-13.96
-17.40
-20.54
-23.35
-25.91
-28.46
-31.29
-34.68
-38.82
-43.74
-49.18
-54.50
-58.66
-60.48
-58.96
-53.62
-44.73
-33.27
-20.61
-8.13
3.09
12.45
19.78
25.20
28.95
31.28
32.41
32.54
31.94
30.92
29.88
29.17
29.01
29.38
30.04
30.69
31.09
31.21
31.13
31.01
30.89
30.66
30.12
29.08
27.47
25.40
23.06
20.71
18.52
16.59
14.88
13.25
11.51
9.48
7.02
4.19
1.16
-1.79
-4.40
-6.54
-8.30
-9.90
-11.65
-13.79
-16.34
-19.20
-22.15
-25.01
-27.69
-30.23
-32.75
-35.42
-38.43
-41.94
-46.07
-50.77
-55.61
-59.77
-62.08
-61.39
-56.93
-48.72
-37.58
-24.91
-12.26
-0.89
8.49
15.68
20.82
24.19
26.06
26.67
26.28
25.28
24.12
23.25
23.00
23.45
24.43
25.60
26.62
27.31
27.69
27.91
28.14
28.39
28.52
28.25
27.36
25.79
23.65
21.19
18.70
16.39
14.32
12.43
10.57
8.60
6.42
4.04
1.54
-0.96
-3.38
-5.73
-8.11
-10.65
-13.46
-16.58
-19.89
-23.20
-26.31
-29.08
-31.55
-33.93
-36.53
-39.75
-43.88
-48.94
-54.50
-59.64
-63.09
-63.55
-60.14
-52.74
-42.04
-29.39
-16.33
-4.14
6.38
14.92
21.56
26.45
29.76
31.64
32.29
32.02
31.25
30.37
29.70
29.38
29.38
29.61
29.94
30.31
30.69
31.11
31.55
31.98
32.27
32.30
31.92
31.00
29.50
27.50
25.15
22.69
20.33
18.21
16.28
14.40
12.39
10.12
7.57
4.87
2.21
-0.28
-2.54
-4.66
-6.81
-9.15
-11.78
-14.73
-17.93
-21.27
-24.59
-27.75
-30.68
-33.39
-36.03
-38.87
-42.21
-46.27
-51.06
-56.21
-60.97
-64.27
-64.96
-62.08
-55.26
-44.81
-31.82
-17.82
-4.40
7.18
16.31
22.93
27.38
30.15
31.64
32.14
31.90
31.19
30.31
29.50
28.91
28.51
28.15
27.74
27.26
26.84
26.69
26.92
27.51
28.20
28.63
28.45
27.46
25.68
23.28
20.51
17.59
14.67
11.88
9.35
7.20
5.56
4.41
3.67
3.18
2.76
2.26
1.58
0.58
-0.84
-2.80
-5.31
-8.22
-11.32
-14.38
-17.26
-20.01
-22.79
-25.85
-29.45
-33.81
-38.95
-44.60
-50.06
-54.23
-55.87
-53.97
-48.19
-38.99
-27.60
-15.58
-4.31
5.33
13.02
18.87
23.11
25.91
27.36
27.56
26.72
25.25
23.62
22.27
21.45
21.19
21.39
21.92
22.64
23.50
24.45
25.40
26.20
26.67
26.60
25.85
24.39
22.36
20.00
17.61
15.42
13.49
11.72
9.90
7.80
5.37
2.69
0.01
-2.42
-4.46
-6.22
-7.94
-9.90
-12.32
-15.24
-18.50
-21.86
-25.09
-28.08
-30.85
-33.56
-36.44
-39.77
-43.76
-48.44
-53.47
-58.12
-61.32
-61.93
-59.11
-52.62
-42.99
-31.33
-19.04
-7.43
2.65
10.82
17.13
21.83
25.17
27.35
28.51
28.80
28.47
27.86
27.31
27.10
27.32
27.84
28.45
28.94
29.22
29.38
29.55
29.81
30.09
30.17
29.76
28.66
26.82
24.43
21.82
19.34
17.19
15.37
13.68
11.81
9.56
6.92
4.04
1.24
-1.26
-3.39
-5.30
-7.29
-9.67
-12.56
-15.86
-19.30
-22.53
-25.33
-27.70
-29.85
-32.12
-34.92
-38.53
-43.08
-48.37
-53.83
-58.55
-61.41
-61.34
-57.67
-50.39
-40.21
-28.41
-16.42
-5.41
3.93
11.41
17.14
21.33
24.13
25.62
25.94
25.30
24.07
22.67
21.48
20.77
20.64
21.02
21.72
22.51
23.15
23.42
23.24
22.58
21.50
20.05
18.28
16.19
13.83
11.22
8.44
5.56
2.59
-0.47
-3.67
-7.02
-10.45
-13.86
-17.13
-20.21
-23.21
-26.39
-30.04
-34.30
-38.89
-43.03
-45.59
-45.47
-41.98
-35.20
-25.92
-15.39
-4.87
4.73
12.92
19.53
24.54
27.89
29.55
29.59
28.31
26.22
23.93
21.97
20.67
20.04
19.91
19.95
19.91
19.64
19.13
18.45
17.67
16.82
15.82
14.56
12.88
10.65
7.79
4.31
0.35
-3.82
-7.89
-11.62
-14.88
-17.78
-20.57
-23.58
-27.10
-31.30
-36.08
-41.06
-45.49
-48.42
-48.83
-46.03
-39.89
-30.93
-20.20
-8.98
1.64
10.90
18.50
24.39
28.69
31.52
33.03
33.41
32.96
32.06
31.11
30.42
30.20
30.51
31.27
32.33
33.44
34.34
34.84
34.80
34.25
33.33
32.20
31.00
29.74
28.33
26.67
24.69
22.45
20.11
17.82
15.70
13.76
11.97
10.29
8.67
7.06
5.37
3.52
1.45
-0.84
-3.23
-5.60
-7.89
-10.16
-12.56
-15.30
-18.44
-21.88
-25.38
-28.66
-31.55
-34.04
-36.31
-38.65
-41.36
-44.75
-49.01
-54.10
-59.60
-64.63
-67.93
-68.19
-64.48
-56.63
-45.36
-32.09
-18.47
-5.92
4.66
13.00
19.21
23.54
26.24
27.56
27.79
27.36
26.78
26.53
26.90
27.86
29.13
30.33
31.16
31.56
31.68
31.77
32.03
32.45
32.82
32.88
32.37
31.19
29.40
27.15
24.69
22.28
20.08
18.15
16.40
14.65
12.72
10.48
7.99
5.44
3.08
1.07
-0.61
-2.13
-3.78
-5.80
-8.27
-11.18
-14.37
-17.65
-20.85
-23.84
-26.60
-29.19
-31.79
-34.69
-38.17
-42.39
-47.20
-51.94
-55.57
-56.84
-54.75
-48.91
-39.74
-28.38
-16.34
-5.00
4.70
12.40
18.14
22.19
24.76
26.03
26.18
25.51
24.45
23.49
23.01
23.18
23.87
24.83
25.73
26.40
26.81
27.06
27.25
27.45
27.58
27.50
27.04
26.06
24.51
22.46
20.09
17.67
15.46
13.59
12.03
10.57
8.93
6.92
4.50
1.86
-0.76
-3.08
-5.02
-6.70
-8.37
-10.39
-13.00
-16.23
-19.91
-23.66
-27.08
-29.92
-32.15
-34.08
-36.22
-39.11
-43.13
-48.20
-53.76
-58.69
-61.67
-61.50
-57.50
-49.81
-39.30
-27.33
-15.29
-4.31
5.00
12.42
18.06
22.11
24.77
26.26
26.86
26.90
26.74
26.66
26.79
27.06
27.34
27.47
27.44
27.39
27.54
28.04
28.82
29.58
29.95
29.64
28.56
26.87
24.83
22.72
20.69
18.79
17.02
15.31
13.57
11.67
9.48
6.96
4.22
1.52
-0.91
-2.94
-4.72
-6.60
-8.93
-11.93
-15.44
-19.11
-22.48
-25.23
-27.32
-29.02
-30.73
-32.91
-35.94
-39.98
-44.88
-50.12
-54.76
-57.60
-57.53
-53.83
-46.53
-36.39
-24.73
-13.02
-2.43
6.39
13.29
18.47
22.14
24.48
25.57
25.55
24.69
23.45
22.31
21.67
21.63
22.07
22.70
23.25
23.66
24.00
24.40
24.87
25.26
25.29
24.71
23.44
21.65
19.64
17.74
16.07
14.58
13.02
11.15
8.84
6.16
3.35
0.68
-1.71
-3.86
-5.97
-8.29
-10.92
-13.79
-16.66
-19.31
-21.62
-23.70
-25.80
-28.18
-31.03
-34.45
-38.44
-43.00
-47.93
-52.78
-56.69
-58.55
-57.29
-52.36
-43.93
-33.01
-21.03
-9.49
0.53
8.52
14.49
18.76
21.68
23.55
24.54
24.82
24.62
24.23
23.92
23.90
24.19
24.65
25.07
25.30
25.28
25.12
24.94
24.82
24.76
24.64
24.29
23.59
22.41
20.70
18.49
15.87
13.03
10.22
7.67
5.47
3.57
1.77
-0.23
-2.65
-5.55
-8.80
-12.15
-15.30
-18.09
-20.53
-22.80
-25.19
-28.02
-31.55
-35.97
-41.21
-46.91
-52.30
-56.26
-57.57
-55.28
-49.09
-39.55
-27.96
-15.92
-4.89
4.28
11.37
16.68
20.63
23.54
25.51
26.51
26.61
26.04
25.20
24.52
24.32
24.63
25.27
25.92
26.26
26.05
25.26
24.00
22.47
20.88
19.35
17.84
16.15
13.99
11.15
7.58
3.46
-0.89
-5.10
-8.91
-12.28
-15.35
-18.37
-21.66
-25.44
-29.82
-34.62
-39.36
-43.21
-45.20
-44.43
-40.44
-33.38
-24.04
-13.62
-3.38
5.75
13.27
19.09
23.39
26.34
28.03
28.51
27.95
26.63
25.05
23.74
23.06
23.14
23.75
24.49
24.92
24.76
23.93
22.56
20.86
19.07
17.34
15.64
13.85
11.76
9.20
6.11
2.62
-1.05
-4.60
-7.86
-10.83
-13.66
-16.61
-19.95
-23.89
-28.49
-33.64
-38.94
-43.66
-46.81
-47.34
-44.50
-38.12
-28.76
-17.58
-6.00
4.73
13.81
20.95
26.23
29.88
32.14
33.24
33.39
32.91
32.14
31.42
30.98
30.91
31.17
31.61
32.13
32.64
33.11
33.50
33.77
33.79
33.42
32.52
31.08
29.20
27.10
25.01
23.10
21.43
19.93
18.51
17.06
15.55
13.95
12.27
10.45
8.49
6.41
4.27
2.19
0.23
-1.63
-3.49
-5.49
-7.75
-10.31
-13.15
-16.21
-19.39
-22.59
-25.70
-28.62
-31.29
-33.75
-36.19
-38.91
-42.26
-46.47
-51.51
-56.91
-61.79
-65.01
-65.43
-62.27
-55.43
-45.52
-33.73
-21.46
-9.94
0.02
8.14
14.47
19.27
22.79
25.25
26.85
27.89
28.64
29.36
30.17
31.02
31.74
32.18
32.26
32.05
31.71
31.44
31.37
31.48
31.62
31.60
31.17
30.18
28.58
26.45
23.95
21.30
18.74
16.46
14.54
12.95
11.51
10.01
8.21
6.02
3.55
1.04
-1.22
-3.06
-4.55
-5.95
-7.61
-9.78
-12.45
-15.45
-18.47
-21.30
-23.87
-26.23
-28.52
-30.87
-33.48
-36.54
-40.17
-44.26
-48.22
-51.07
-51.63
-49.04
-43.11
-34.49
-24.41
-14.22
-4.94
2.89
9.20
14.06
17.58
19.76
20.68
20.54
19.73
18.79
18.18
18.18
18.76
19.68
20.59
21.21
21.43
21.36
21.19
21.11
21.18
21.31
21.33
21.06
20.43
19.43
18.15
16.67
15.05
13.28
11.35
9.22
6.94
4.62
2.42
0.52
-1.01
-2.24
-3.36
-4.62
-6.25
-8.36
-10.95
-13.89
-17.01
-20.12
-23.03
-25.65
-27.94
-30.04
-32.23
-34.82
-38.07
-41.93
-45.95
-49.31
-51.01
-50.17
-46.34
-39.68
-30.94
-21.20
-11.59
-2.98
4.18
9.84
14.12
17.20
19.19
20.21
20.41
20.11
19.66
19.43
19.58
20.09
20.78
21.44
21.96
22.32
22.61
22.90
23.21
23.44
23.44
23.08
22.31
21.17
19.77
18.25
16.68
15.11
13.50
11.86
10.22
8.67
7.25
5.93
4.58
3.02
1.19
-0.87
-2.97
-4.98
-6.82
-8.57
-10.45
-12.63
-15.15
-17.91
-20.68
-23.25
-25.53
-27.58
-29.62
-31.92
-34.74
-38.18
-42.17
-46.35
-50.06
-52.47
-52.76
-50.34
-45.12
-37.55
-28.53
-19.12
-10.23
-2.42
4.12
9.43
13.64
16.80
18.93
20.12
20.57
20.61
20.57
