Time_stamp,Value
1603462604.0,5.51
1603462604.015625,4.98
1603462604.03125,4.81
1603462604.046875,5.29
1603462604.0625,6.57
1603462604.078125,8.58
1603462604.09375,11.16
1603462604.109375,14.1
1603462604.125,17.22
1603462604.140625,20.35
1603462604.15625,23.33
1603462604.171875,25.91
1603462604.1875,27.75
1603462604.203125,28.51
1603462604.21875,27.89
1603462604.234375,25.85
1603462604.25,22.6
1603462604.265625,18.55
1603462604.28125,14.25
1603462604.296875,10.18
1603462604.3125,6.7
1603462604.328125,4.03
1603462604.34375,2.17
1603462604.359375,0.96
1603462604.375,0.05
1603462604.390625,-0.93
1603462604.40625,-2.35
1603462604.421875,-4.37
1603462604.4375,-6.94
1603462604.453125,-9.83
1603462604.46875,-12.72
1603462604.484375,-15.4
1603462604.5,-17.85
1603462604.515625,-20.21
1603462604.53125,-22.79
1603462604.546875,-25.86
1603462604.5625,-29.64
1603462604.578125,-34.1
1603462604.59375,-38.97
1603462604.609375,-43.67
1603462604.625,-47.37
1603462604.640625,-49.13
1603462604.65625,-48.17
1603462604.671875,-44.04
1603462604.6875,-36.85
1603462604.703125,-27.18
1603462604.71875,-16.0
1603462604.734375,-4.43
1603462604.75,6.51
1603462604.765625,16.01
1603462604.78125,23.54
1603462604.796875,28.85
1603462604.8125,31.95
1603462604.828125,33.0
1603462604.84375,32.36
1603462604.859375,30.44
1603462604.875,27.73
1603462604.890625,24.73
1603462604.90625,21.86
1603462604.921875,19.49
1603462604.9375,17.84
1603462604.953125,17.05
1603462604.96875,17.12
1603462604.984375,17.99
1603462605.0,19.54
1603462605.015625,21.55
1603462605.03125,23.73
1603462605.046875,25.69
1603462605.0625,26.97
1603462605.078125,27.2
1603462605.09375,26.19
1603462605.109375,24.01
1603462605.125,21.01
1603462605.140625,17.67
1603462605.15625,14.46
1603462605.171875,11.62
1603462605.1875,9.13
1603462605.203125,6.77
1603462605.21875,4.24
1603462605.234375,1.35
1603462605.25,-1.86
1603462605.265625,-5.18
1603462605.28125,-8.37
1603462605.296875,-11.25
1603462605.3125,-13.86
1603462605.328125,-16.37
1603462605.34375,-19.02
1603462605.359375,-22.05
1603462605.375,-25.62
1603462605.390625,-29.77
1603462605.40625,-34.35
1603462605.421875,-38.93
1603462605.4375,-42.83
1603462605.453125,-45.12
1603462605.46875,-44.85
1603462605.484375,-41.36
1603462605.5,-34.52
1603462605.515625,-24.89
1603462605.53125,-13.6
1603462605.546875,-2.01
1603462605.5625,8.63
1603462605.578125,17.49
1603462605.59375,24.27
1603462605.609375,29.01
1603462605.625,31.92
1603462605.640625,33.16
1603462605.65625,32.79
1603462605.671875,30.83
1603462605.6875,27.5
1603462605.703125,23.28
1603462605.71875,18.91
1603462605.734375,15.19
1603462605.75,12.71
1603462605.765625,11.67
1603462605.78125,11.88
1603462605.796875,12.92
1603462605.8125,14.34
1603462605.828125,15.79
1603462605.84375,17.07
1603462605.859375,18.07
1603462605.875,18.65
1603462605.890625,18.62
1603462605.90625,17.8
1603462605.921875,16.09
1603462605.9375,13.53
1603462605.953125,10.34
1603462605.96875,6.82
1603462605.984375,3.25
1603462606.0,-0.13
1603462606.015625,-3.25
1603462606.03125,-6.16
1603462606.046875,-8.99
1603462606.0625,-11.84
1603462606.078125,-14.74
1603462606.09375,-17.63
1603462606.109375,-20.41
1603462606.125,-23.1
1603462606.140625,-25.84
1603462606.15625,-28.87
1603462606.171875,-32.39
1603462606.1875,-36.32
1603462606.203125,-40.17
1603462606.21875,-43.1
1603462606.234375,-44.09
1603462606.25,-42.33
1603462606.265625,-37.5
1603462606.28125,-29.86
1603462606.296875,-20.24
1603462606.3125,-9.69
1603462606.328125,0.73
1603462606.34375,10.23
1603462606.359375,18.28
1603462606.375,24.55
1603462606.390625,28.88
1603462606.40625,31.18
1603462606.421875,31.5
1603462606.4375,30.06
1603462606.453125,27.26
1603462606.46875,23.66
1603462606.484375,19.85
1603462606.5,16.37
1603462606.515625,13.64
1603462606.53125,11.92
1603462606.546875,11.33
1603462606.5625,11.83
1603462606.578125,13.19
1603462606.59375,15.07
1603462606.609375,17.06
1603462606.625,18.77
1603462606.640625,19.93
1603462606.65625,20.38
1603462606.671875,20.06
1603462606.6875,18.97
1603462606.703125,17.17
1603462606.71875,14.81
1603462606.734375,12.08
1603462606.75,9.18
1603462606.765625,6.3
1603462606.78125,3.48
1603462606.796875,0.7
1603462606.8125,-2.14
1603462606.828125,-5.06
1603462606.84375,-7.98
1603462606.859375,-10.76
1603462606.875,-13.25
1603462606.890625,-15.45
1603462606.90625,-17.5
1603462606.921875,-19.73
1603462606.9375,-22.49
1603462606.953125,-26.09
1603462606.96875,-30.63
1603462606.984375,-35.93
1603462607.0,-41.47
1603462607.015625,-46.45
1603462607.03125,-49.91
1603462607.046875,-51.0
1603462607.0625,-49.15
1603462607.078125,-44.28
1603462607.09375,-36.77
1603462607.109375,-27.42
1603462607.125,-17.22
1603462607.140625,-7.18
1603462607.15625,1.89
1603462607.171875,9.43
1603462607.1875,15.18
1603462607.203125,19.01
1603462607.21875,20.94
1603462607.234375,21.04
1603462607.25,19.5
1603462607.265625,16.72
1603462607.28125,13.3
1603462607.296875,9.95
1603462607.3125,7.38
1603462607.328125,6.08
1603462607.34375,6.21
1603462607.359375,7.6
1603462607.375,9.87
1603462607.390625,12.62
1603462607.40625,15.5
1603462607.421875,18.26
1603462607.4375,20.73
1603462607.453125,22.73
1603462607.46875,24.06
1603462607.484375,24.57
1603462607.5,24.13
1603462607.515625,22.77
1603462607.53125,20.65
1603462607.546875,18.04
1603462607.5625,15.27
1603462607.578125,12.62
1603462607.59375,10.24
1603462607.609375,8.11
1603462607.625,6.06
1603462607.640625,3.84
1603462607.65625,1.25
1603462607.671875,-1.77
1603462607.6875,-5.15
1603462607.703125,-8.65
1603462607.71875,-12.02
1603462607.734375,-15.04
1603462607.75,-17.66
1603462607.765625,-20.02
1603462607.78125,-22.44
1603462607.796875,-25.34
1603462607.8125,-29.08
1603462607.828125,-33.78
1603462607.84375,-39.2
1603462607.859375,-44.65
1603462607.875,-49.17
1603462607.890625,-51.69
1603462607.90625,-51.36
1603462607.921875,-47.76
1603462607.9375,-40.97
1603462607.953125,-31.58
1603462607.96875,-20.54
1603462607.984375,-8.98
1603462608.0,1.99
1603462608.015625,11.5
1603462608.03125,18.98
1603462608.046875,24.23
1603462608.0625,27.36
1603462608.078125,28.61
1603462608.09375,28.34
1603462608.109375,26.86
1603462608.125,24.51
1603462608.140625,21.7
1603462608.15625,18.86
1603462608.171875,16.46
1603462608.1875,14.86
1603462608.203125,14.28
1603462608.21875,14.79
1603462608.234375,16.23
1603462608.25,18.37
1603462608.265625,20.84
1603462608.28125,23.26
1603462608.296875,25.21
1603462608.3125,26.38
1603462608.328125,26.61
1603462608.34375,25.92
1603462608.359375,24.52
1603462608.375,22.68
1603462608.390625,20.67
1603462608.40625,18.63
1603462608.421875,16.59
1603462608.4375,14.48
1603462608.453125,12.25
1603462608.46875,9.89
1603462608.484375,7.47
1603462608.5,5.08
1603462608.515625,2.79
1603462608.53125,0.6
1603462608.546875,-1.59
1603462608.5625,-3.89
1603462608.578125,-6.42
1603462608.59375,-9.22
1603462608.609375,-12.17
1603462608.625,-15.11
1603462608.640625,-17.86
1603462608.65625,-20.35
1603462608.671875,-22.66
1603462608.6875,-24.94
1603462608.703125,-27.4
1603462608.71875,-30.24
1603462608.734375,-33.62
1603462608.75,-37.56
1603462608.765625,-41.96
1603462608.78125,-46.4
1603462608.796875,-50.18
1603462608.8125,-52.33
1603462608.828125,-51.86
1603462608.84375,-48.06
1603462608.859375,-40.77
1603462608.875,-30.56
1603462608.890625,-18.54
1603462608.90625,-6.04
1603462608.921875,5.67
1603462608.9375,15.72
1603462608.953125,23.65
1603462608.96875,29.35
1603462608.984375,32.9
1603462609.0,34.49
1603462609.015625,34.35
1603462609.03125,32.82
1603462609.046875,30.35
1603462609.0625,27.45
1603462609.078125,24.64
1603462609.09375,22.38
1603462609.109375,20.91
1603462609.125,20.37
1603462609.140625,20.7
1603462609.15625,21.77
1603462609.171875,23.38
1603462609.1875,25.28
1603462609.203125,27.23
1603462609.21875,28.96
1603462609.234375,30.23
1603462609.25,30.83
1603462609.265625,30.64
1603462609.28125,29.64
1603462609.296875,27.93
1603462609.3125,25.7
1603462609.328125,23.17
1603462609.34375,20.52
1603462609.359375,17.87
1603462609.375,15.28
1603462609.390625,12.74
1603462609.40625,10.22
1603462609.421875,7.74
1603462609.4375,5.33
1603462609.453125,3.06
1603462609.46875,0.98
1603462609.484375,-0.89
1603462609.5,-2.6
1603462609.515625,-4.26
1603462609.53125,-6.0
1603462609.546875,-7.97
1603462609.5625,-10.26
1603462609.578125,-12.87
1603462609.59375,-15.69
1603462609.609375,-18.59
1603462609.625,-21.38
1603462609.640625,-23.98
1603462609.65625,-26.43
1603462609.671875,-28.92
1603462609.6875,-31.75
1603462609.703125,-35.23
1603462609.71875,-39.53
1603462609.734375,-44.49
1603462609.75,-49.55
1603462609.765625,-53.76
1603462609.78125,-55.99
1603462609.796875,-55.23
1603462609.8125,-50.88
1603462609.828125,-42.96
1603462609.84375,-32.11
1603462609.859375,-19.44
1603462609.875,-6.28
1603462609.890625,6.14
1603462609.90625,16.82
1603462609.921875,25.15
1603462609.9375,30.9
1603462609.953125,34.14
1603462609.96875,35.16
1603462609.984375,34.32
1603462610.0,32.05
1603462610.015625,28.8
1603462610.03125,25.05
1603462610.046875,21.3
1603462610.0625,18.05
1603462610.078125,15.7
1603462610.09375,14.46
1603462610.109375,14.34
1603462610.125,15.18
1603462610.140625,16.71
1603462610.15625,18.66
1603462610.171875,20.73
1603462610.1875,22.63
1603462610.203125,24.05
1603462610.21875,24.71
1603462610.234375,24.41
1603462610.25,23.12
1603462610.265625,21.03
1603462610.28125,18.48
1603462610.296875,15.84
1603462610.3125,13.4
1603462610.328125,11.25
1603462610.34375,9.33
1603462610.359375,7.52
1603462610.375,5.64
1603462610.390625,3.64
1603462610.40625,1.53
1603462610.421875,-0.58
1603462610.4375,-2.56
1603462610.453125,-4.3
1603462610.46875,-5.81
1603462610.484375,-7.21
1603462610.5,-8.71
1603462610.515625,-10.52
1603462610.53125,-12.71
1603462610.546875,-15.22
1603462610.5625,-17.83
1603462610.578125,-20.29
1603462610.59375,-22.41
1603462610.609375,-24.22
1603462610.625,-25.89
1603462610.640625,-27.73
1603462610.65625,-30.05
1603462610.671875,-33.07
1603462610.6875,-36.82
1603462610.703125,-41.07
1603462610.71875,-45.27
1603462610.734375,-48.59
1603462610.75,-50.1
1603462610.765625,-48.96
1603462610.78125,-44.67
1603462610.796875,-37.27
1603462610.8125,-27.31
1603462610.828125,-15.79
1603462610.84375,-3.86
1603462610.859375,7.37
1603462610.875,17.04
1603462610.890625,24.63
1603462610.90625,29.9
1603462610.921875,32.87
1603462610.9375,33.68
1603462610.953125,32.62
1603462610.96875,30.08
1603462610.984375,26.57
1603462611.0,22.73
1603462611.015625,19.2
1603462611.03125,16.54
1603462611.046875,15.08
1603462611.0625,14.94
1603462611.078125,15.95
1603462611.09375,17.84
1603462611.109375,20.22
1603462611.125,22.69
1603462611.140625,24.93
1603462611.15625,26.61
1603462611.171875,27.57
1603462611.1875,27.7
1603462611.203125,27.03
1603462611.21875,25.63
1603462611.234375,23.65
1603462611.25,21.22
1603462611.265625,18.52
1603462611.28125,15.72
1603462611.296875,12.93
1603462611.3125,10.22
1603462611.328125,7.57
1603462611.34375,4.94
1603462611.359375,2.29
1603462611.375,-0.34
1603462611.390625,-2.86
1603462611.40625,-5.17
1603462611.421875,-7.23
1603462611.4375,-9.14
1603462611.453125,-11.03
1603462611.46875,-13.06
1603462611.484375,-15.32
1603462611.5,-17.79
1603462611.515625,-20.4
1603462611.53125,-23.04
1603462611.546875,-25.59
1603462611.5625,-28.0
1603462611.578125,-30.27
1603462611.59375,-32.53
1603462611.609375,-35.01
1603462611.625,-38.02
1603462611.640625,-41.82
1603462611.65625,-46.47
1603462611.671875,-51.65
1603462611.6875,-56.59
1603462611.703125,-60.21
1603462611.71875,-61.34
1603462611.734375,-59.08
1603462611.75,-53.12
1603462611.765625,-43.79
1603462611.78125,-32.02
1603462611.796875,-19.04
1603462611.8125,-6.1
1603462611.828125,5.82
1603462611.84375,16.03
1603462611.859375,24.17
1603462611.875,30.06
1603462611.890625,33.68
1603462611.90625,35.12
1603462611.921875,34.61
1603462611.9375,32.56
1603462611.953125,29.55
1603462611.96875,26.2
1603462611.984375,23.1
1603462612.0,20.69
1603462612.015625,19.22
1603462612.03125,18.75
1603462612.046875,19.18
1603462612.0625,20.34
1603462612.078125,22.02
1603462612.09375,24.01
1603462612.109375,26.09
1603462612.125,27.99
1603462612.140625,29.49
1603462612.15625,30.34
1603462612.171875,30.39
1603462612.1875,29.57
1603462612.203125,27.97
1603462612.21875,25.78
1603462612.234375,23.25
1603462612.25,20.63
1603462612.265625,18.11
1603462612.28125,15.76
1603462612.296875,13.57
1603462612.3125,11.47
1603462612.328125,9.38
1603462612.34375,7.23
1603462612.359375,5.01
1603462612.375,2.77
1603462612.390625,0.54
1603462612.40625,-1.61
1603462612.421875,-3.64
1603462612.4375,-5.61
1603462612.453125,-7.59
1603462612.46875,-9.73
1603462612.484375,-12.17
1603462612.5,-14.98
1603462612.515625,-18.1
1603462612.53125,-21.37
1603462612.546875,-24.57
1603462612.5625,-27.52
1603462612.578125,-30.19
1603462612.59375,-32.75
1603462612.609375,-35.52
1603462612.625,-38.9
1603462612.640625,-43.16
1603462612.65625,-48.3
1603462612.671875,-53.84
1603462612.6875,-58.9
1603462612.703125,-62.27
1603462612.71875,-62.79
1603462612.734375,-59.65
1603462612.75,-52.7
1603462612.765625,-42.54
1603462612.78125,-30.31
1603462612.796875,-17.45
1603462612.8125,-5.29
1603462612.828125,5.25
1603462612.84375,13.68
1603462612.859375,19.95
1603462612.875,24.22
1603462612.890625,26.66
1603462612.90625,27.39
1603462612.921875,26.47
1603462612.9375,24.03
1603462612.953125,20.41
1603462612.96875,16.14
1603462612.984375,11.92
1603462613.0,8.42
1603462613.015625,6.13
1603462613.03125,5.26
1603462613.046875,5.73
1603462613.0625,7.36
1603462613.078125,9.89
1603462613.09375,13.12
1603462613.109375,16.81
1603462613.125,20.68
1603462613.140625,24.35
1603462613.15625,27.38
1603462613.171875,29.44
1603462613.1875,30.4
1603462613.203125,30.44
1603462613.21875,29.92
1603462613.234375,29.18
1603462613.25,28.42
1603462613.265625,27.56
1603462613.28125,26.35
1603462613.296875,24.55
1603462613.3125,22.11
1603462613.328125,19.21
1603462613.34375,16.17
1603462613.359375,13.24
1603462613.375,10.49
1603462613.390625,7.77
1603462613.40625,4.8
1603462613.421875,1.44
1603462613.4375,-2.3
1603462613.453125,-6.18
1603462613.46875,-9.88
1603462613.484375,-13.11
1603462613.5,-15.74
1603462613.515625,-17.81
1603462613.53125,-19.56
1603462613.546875,-21.34
1603462613.5625,-23.54
1603462613.578125,-26.54
1603462613.59375,-30.53
1603462613.609375,-35.45
1603462613.625,-40.9
1603462613.640625,-46.07
1603462613.65625,-49.92
1603462613.671875,-51.36
1603462613.6875,-49.56
1603462613.703125,-44.18
1603462613.71875,-35.51
1603462613.734375,-24.41
1603462613.75,-12.16
1603462613.765625,-0.07
1603462613.78125,10.75
1603462613.796875,19.62
1603462613.8125,26.27
1603462613.828125,30.78
1603462613.84375,33.37
1603462613.859375,34.28
1603462613.875,33.73
1603462613.890625,31.91
1603462613.90625,29.06
1603462613.921875,25.55
1603462613.9375,21.88
1603462613.953125,18.6
1603462613.96875,16.17
1603462613.984375,14.92
1603462614.0,14.9
1603462614.015625,15.95
1603462614.03125,17.75
1603462614.046875,19.92
1603462614.0625,22.04
1603462614.078125,23.74
1603462614.09375,24.76
1603462614.109375,24.98
1603462614.125,24.42
1603462614.140625,23.21
1603462614.15625,21.53
1603462614.171875,19.47
1603462614.1875,17.1
1603462614.203125,14.43
1603462614.21875,11.52
1603462614.234375,8.51
1603462614.25,5.6
1603462614.265625,2.94
1603462614.28125,0.56
1603462614.296875,-1.69
1603462614.3125,-4.04
1603462614.328125,-6.7
1603462614.34375,-9.71
1603462614.359375,-12.96
1603462614.375,-16.19
1603462614.390625,-19.18
1603462614.40625,-21.78
1603462614.421875,-23.98
1603462614.4375,-25.95
1603462614.453125,-27.94
1603462614.46875,-30.29
1603462614.484375,-33.35
1603462614.5,-37.31
1603462614.515625,-42.12
1603462614.53125,-47.37
1603462614.546875,-52.29
1603462614.5625,-55.81
1603462614.578125,-56.84
1603462614.59375,-54.57
1603462614.609375,-48.71
1603462614.625,-39.59
1603462614.640625,-28.14
1603462614.65625,-15.58
1603462614.671875,-3.19
1603462614.6875,7.96
1603462614.703125,17.19
1603462614.71875,24.15
1603462614.734375,28.71
1603462614.75,30.94
1603462614.765625,30.99
1603462614.78125,29.19
1603462614.796875,26.05
1603462614.8125,22.28
1603462614.828125,18.65
1603462614.84375,15.86
1603462614.859375,14.36
1603462614.875,14.34
1603462614.890625,15.71
1603462614.90625,18.19
1603462614.921875,21.39
1603462614.9375,24.87
1603462614.953125,28.17
1603462614.96875,30.84
1603462614.984375,32.47
1603462615.0,32.83
1603462615.015625,31.9
1603462615.03125,29.87
1603462615.046875,27.08
1603462615.0625,23.9
1603462615.078125,20.56
1603462615.09375,17.14
1603462615.109375,13.6
1603462615.125,9.83
1603462615.140625,5.85
1603462615.15625,1.72
1603462615.171875,-2.37
1603462615.1875,-6.28
1603462615.203125,-9.92
1603462615.21875,-13.3
1603462615.234375,-16.46
1603462615.25,-19.48
1603462615.265625,-22.48
1603462615.28125,-25.62
1603462615.296875,-29.13
1603462615.3125,-33.2
1603462615.328125,-37.81
1603462615.34375,-42.62
1603462615.359375,-46.92
1603462615.375,-49.77
1603462615.390625,-50.26
1603462615.40625,-47.77
1603462615.421875,-42.22
1603462615.4375,-33.99
1603462615.453125,-23.81
1603462615.46875,-12.63
1603462615.484375,-1.35
1603462615.5,9.22
1603462615.515625,18.39
1603462615.53125,25.66
1603462615.546875,30.69
1603462615.5625,33.37
1603462615.578125,33.78
1603462615.59375,32.25
1603462615.609375,29.25
1603462615.625,25.36
1603462615.640625,21.21
1603462615.65625,17.43
1603462615.671875,14.55
1603462615.6875,12.92
1603462615.703125,12.67
1603462615.71875,13.64
1603462615.734375,15.49
1603462615.75,17.71
1603462615.765625,19.82
1603462615.78125,21.41
1603462615.796875,22.24
1603462615.8125,22.22
1603462615.828125,21.32
1603462615.84375,19.59
1603462615.859375,17.12
1603462615.875,14.05
1603462615.890625,10.6
1603462615.90625,7.0
1603462615.921875,3.5
1603462615.9375,0.22
1603462615.953125,-2.89
1603462615.96875,-6.02
1603462615.984375,-9.35
1603462616.0,-12.96
1603462616.015625,-16.73
1603462616.03125,-20.36
1603462616.046875,-23.56
1603462616.0625,-26.22
1603462616.078125,-28.49
1603462616.09375,-30.78
1603462616.109375,-33.62
1603462616.125,-37.33
1603462616.140625,-41.94
1603462616.15625,-46.99
1603462616.171875,-51.64
1603462616.1875,-54.83
1603462616.203125,-55.5
1603462616.21875,-52.92
1603462616.234375,-46.85
1603462616.25,-37.65
1603462616.265625,-26.21
1603462616.28125,-13.71
1603462616.296875,-1.34
1603462616.3125,9.91
1603462616.328125,19.42
1603462616.34375,26.85
1603462616.359375,32.13
1603462616.375,35.33
1603462616.390625,36.64
1603462616.40625,36.33
1603462616.421875,34.75
1603462616.4375,32.3
1603462616.453125,29.44
1603462616.46875,26.6
1603462616.484375,24.18
1603462616.5,22.49
1603462616.515625,21.73
1603462616.53125,21.93
1603462616.546875,22.93
1603462616.5625,24.45
1603462616.578125,26.15
1603462616.59375,27.74
1603462616.609375,28.96
1603462616.625,29.62
1603462616.640625,29.59
1603462616.65625,28.73
1603462616.671875,27.01
1603462616.6875,24.49
1603462616.703125,21.33
1603462616.71875,17.79
1603462616.734375,14.17
1603462616.75,10.71
1603462616.765625,7.61
1603462616.78125,4.9
1603462616.796875,2.42
1603462616.8125,-0.08
1603462616.828125,-2.88
1603462616.84375,-6.14
1603462616.859375,-9.78
1603462616.875,-13.45
1603462616.890625,-16.77
1603462616.90625,-19.44
1603462616.921875,-21.5
1603462616.9375,-23.29
1603462616.953125,-25.34
1603462616.96875,-28.13
1603462616.984375,-31.93
1603462617.0,-36.65
1603462617.015625,-41.87
1603462617.03125,-46.82
1603462617.046875,-50.51
1603462617.0625,-51.92
1603462617.078125,-50.26
1603462617.09375,-45.19
1603462617.109375,-36.99
1603462617.125,-26.45
1603462617.140625,-14.7
1603462617.15625,-2.88
1603462617.171875,8.1
1603462617.1875,17.61
1603462617.203125,25.3
1603462617.21875,31.0
1603462617.234375,34.67
1603462617.25,36.39
1603462617.265625,36.38
1603462617.28125,34.93
1603462617.296875,32.45
1603462617.3125,29.38
1603462617.328125,26.2
1603462617.34375,23.41
1603462617.359375,21.42
1603462617.375,20.5
1603462617.390625,20.71
1603462617.40625,21.81
1603462617.421875,23.43
1603462617.4375,25.12
1603462617.453125,26.55
1603462617.46875,27.52
1603462617.484375,27.96
1603462617.5,27.83
1603462617.515625,27.1
1603462617.53125,25.7
1603462617.546875,23.59
1603462617.5625,20.82
1603462617.578125,17.56
1603462617.59375,14.1
1603462617.609375,10.74
1603462617.625,7.7
1603462617.640625,5.09
1603462617.65625,2.83
1603462617.671875,0.73
1603462617.6875,-1.44
1603462617.703125,-3.85
1603462617.71875,-6.57
1603462617.734375,-9.54
1603462617.75,-12.62
1603462617.765625,-15.63
1603462617.78125,-18.45
1603462617.796875,-21.02
1603462617.8125,-23.4
1603462617.828125,-25.74
1603462617.84375,-28.26
1603462617.859375,-31.19
1603462617.875,-34.76
1603462617.890625,-39.02
1603462617.90625,-43.69
1603462617.921875,-48.11
1603462617.9375,-51.26
1603462617.953125,-52.01
1603462617.96875,-49.49
1603462617.984375,-43.39
1603462618.0,-34.14
1603462618.015625,-22.81
1603462618.03125,-10.75
1603462618.046875,0.76
1603462618.0625,10.85
1603462618.078125,19.09
1603462618.09375,25.41
1603462618.109375,29.86
1603462618.125,32.52
1603462618.140625,33.49
1603462618.15625,32.89
1603462618.171875,31.03
1603462618.1875,28.33
1603462618.203125,25.3
1603462618.21875,22.43
1603462618.234375,20.1
1603462618.25,18.53
1603462618.265625,17.83
1603462618.28125,17.99
1603462618.296875,18.88
1603462618.3125,20.28
1603462618.328125,21.86
1603462618.34375,23.34
1603462618.359375,24.44
1603462618.375,25.02
1603462618.390625,24.98
1603462618.40625,24.23
1603462618.421875,22.66
1603462618.4375,20.26
1603462618.453125,17.14
1603462618.46875,13.62
1603462618.484375,10.16
1603462618.5,7.12
1603462618.515625,4.65
1603462618.53125,2.58
1603462618.546875,0.5
1603462618.5625,-2.0
1603462618.578125,-5.11
1603462618.59375,-8.72
1603462618.609375,-12.46
1603462618.625,-15.9
1603462618.640625,-18.73
1603462618.65625,-20.89
1603462618.671875,-22.56
1603462618.6875,-24.08
1603462618.703125,-25.83
1603462618.71875,-28.14
1603462618.734375,-31.15
1603462618.75,-34.84
1603462618.765625,-39.0
1603462618.78125,-43.21
1603462618.796875,-46.82
1603462618.8125,-49.04
1603462618.828125,-48.99
1603462618.84375,-45.99
1603462618.859375,-39.78
1603462618.875,-30.7
1603462618.890625,-19.69
1603462618.90625,-8.07
1603462618.921875,2.86
1603462618.9375,12.14
1603462618.953125,19.34
1603462618.96875,24.44
1603462618.984375,27.67
1603462619.0,29.22
1603462619.015625,29.18
1603462619.03125,27.67
1603462619.046875,24.96
1603462619.0625,21.58
1603462619.078125,18.17
1603462619.09375,15.36
1603462619.109375,13.58
1603462619.125,12.87
1603462619.140625,13.05
1603462619.15625,13.81
1603462619.171875,14.89
1603462619.1875,16.18
1603462619.203125,17.64
1603462619.21875,19.2
1603462619.234375,20.68
1603462619.25,21.73
1603462619.265625,21.96
1603462619.28125,21.08
1603462619.296875,19.04
1603462619.3125,16.05
1603462619.328125,12.53
1603462619.34375,8.92
1603462619.359375,5.57
1603462619.375,2.57
1603462619.390625,-0.19
1603462619.40625,-2.9
1603462619.421875,-5.73
1603462619.4375,-8.72
1603462619.453125,-11.81
1603462619.46875,-14.86
1603462619.484375,-17.76
1603462619.5,-20.46
1603462619.515625,-23.03
1603462619.53125,-25.63
1603462619.546875,-28.49
1603462619.5625,-31.76
1603462619.578125,-35.43
1603462619.59375,-39.21
1603462619.609375,-42.47
1603462619.625,-44.38
1603462619.640625,-44.09
1603462619.65625,-41.0
1603462619.671875,-34.99
1603462619.6875,-26.47
1603462619.703125,-16.32
1603462619.71875,-5.61
1603462619.734375,4.61
1603462619.75,13.52
1603462619.765625,20.65
1603462619.78125,25.79
1603462619.796875,28.93
1603462619.8125,30.18
1603462619.828125,29.74
1603462619.84375,27.88
1603462619.859375,24.99
1603462619.875,21.56
1603462619.890625,18.09
1603462619.90625,15.05
1603462619.921875,12.77
1603462619.9375,11.44
1603462619.953125,11.07
1603462619.96875,11.55
1603462619.984375,12.66
1603462620.0,14.11
1603462620.015625,15.53
1603462620.03125,16.58
1603462620.046875,17.0
1603462620.0625,16.67
1603462620.078125,15.63
1603462620.09375,13.99
1603462620.109375,11.89
1603462620.125,9.42
1603462620.140625,6.65
1603462620.15625,3.66
1603462620.171875,0.6
1603462620.1875,-2.36
1603462620.203125,-5.03
1603462620.21875,-7.39
1603462620.234375,-9.52
1603462620.25,-11.64
1603462620.265625,-14.02
1603462620.28125,-16.88
1603462620.296875,-20.33
1603462620.3125,-24.38
1603462620.328125,-28.89
1603462620.34375,-33.5
1603462620.359375,-37.64
1603462620.375,-40.53
1603462620.390625,-41.32
1603462620.40625,-39.37
1603462620.421875,-34.44
1603462620.4375,-26.83
1603462620.453125,-17.33
1603462620.46875,-7.02
1603462620.484375,3.03
1603462620.5,11.95
1603462620.515625,19.2
1603462620.53125,24.56
1603462620.546875,28.01
1603462620.5625,29.64
1603462620.578125,29.57
1603462620.59375,27.97
1603462620.609375,25.09
1603462620.625,21.31
1603462620.640625,17.15
1603462620.65625,13.22
1603462620.671875,10.09
1603462620.6875,8.16
1603462620.703125,7.53
1603462620.71875,8.01
1603462620.734375,9.21
1603462620.75,10.68
1603462620.765625,12.08
1603462620.78125,13.24
1603462620.796875,14.1
1603462620.8125,14.61
1603462620.828125,14.61
1603462620.84375,13.86
1603462620.859375,12.11
1603462620.875,9.25
1603462620.890625,5.45
1603462620.90625,1.15
1603462620.921875,-3.06
1603462620.9375,-6.71
1603462620.953125,-9.55
1603462620.96875,-11.66
1603462620.984375,-13.38
1603462621.0,-15.1
1603462621.015625,-17.21
1603462621.03125,-19.95
1603462621.046875,-23.42
1603462621.0625,-27.59
1603462621.078125,-32.27
1603462621.09375,-37.01
1603462621.109375,-41.13
1603462621.125,-43.79
1603462621.140625,-44.11
1603462621.15625,-41.52
1603462621.171875,-35.87
1603462621.1875,-27.59
1603462621.203125,-17.55
1603462621.21875,-6.83
1603462621.234375,3.46
1603462621.25,12.42
1603462621.265625,19.45
1603462621.28125,24.26
1603462621.296875,26.8
1603462621.3125,27.22
1603462621.328125,25.81
1603462621.34375,22.98
1603462621.359375,19.24
1603462621.375,15.2
1603462621.390625,11.5
1603462621.40625,8.7
1603462621.421875,7.18
1603462621.4375,7.06
1603462621.453125,8.19
1603462621.46875,10.2
1603462621.484375,12.61
1603462621.5,14.93
1603462621.515625,16.76
1603462621.53125,17.87
1603462621.546875,18.14
1603462621.5625,17.59
1603462621.578125,16.32
1603462621.59375,14.44
1603462621.609375,12.03
1603462621.625,9.11
1603462621.640625,5.77
1603462621.65625,2.16
1603462621.671875,-1.48
1603462621.6875,-4.88
1603462621.703125,-7.85
1603462621.71875,-10.38
1603462621.734375,-12.64
1603462621.75,-14.93
1603462621.765625,-17.53
1603462621.78125,-20.66
1603462621.796875,-24.37
1603462621.8125,-28.6
1603462621.828125,-33.13
1603462621.84375,-37.58
1603462621.859375,-41.34
1603462621.875,-43.63
1603462621.890625,-43.59
1603462621.90625,-40.64
1603462621.921875,-34.61
1603462621.9375,-25.95
1603462621.953125,-15.53
1603462621.96875,-4.48
1603462621.984375,6.14
1603462622.0,15.51
1603462622.015625,23.11
1603462622.03125,28.68
1603462622.046875,32.12
1603462622.0625,33.49
1603462622.078125,32.91
1603462622.09375,30.71
1603462622.109375,27.39
1603462622.125,23.59
1603462622.140625,19.96
1603462622.15625,17.06
1603462622.171875,15.24
1603462622.1875,14.58
1603462622.203125,14.97
1603462622.21875,16.18
1603462622.234375,17.9
1603462622.25,19.85
1603462622.265625,21.76
1603462622.28125,23.35
1603462622.296875,24.35
1603462622.3125,24.52
1603462622.328125,23.68
1603462622.34375,21.82
1603462622.359375,19.1
1603462622.375,15.84
1603462622.390625,12.46
1603462622.40625,9.33
1603462622.421875,6.66
1603462622.4375,4.42
1603462622.453125,2.37
1603462622.46875,0.19
1603462622.484375,-2.4
1603462622.5,-5.44
1603462622.515625,-8.74
1603462622.53125,-12.01
1603462622.546875,-14.95
1603462622.5625,-17.43
1603462622.578125,-19.52
1603462622.59375,-21.44
1603462622.609375,-23.44
1603462622.625,-25.75
1603462622.640625,-28.55
1603462622.65625,-31.96
1603462622.671875,-35.97
1603462622.6875,-40.34
1603462622.703125,-44.51
1603462622.71875,-47.59
1603462622.734375,-48.56
1603462622.75,-46.58
1603462622.765625,-41.27
1603462622.78125,-32.9
1603462622.796875,-22.32
1603462622.8125,-10.75
1603462622.828125,0.58
1603462622.84375,10.67
1603462622.859375,18.91
1603462622.875,25.02
1603462622.890625,29.01
1603462622.90625,31.0
1603462622.921875,31.25
1603462622.9375,30.07
1603462622.953125,27.89
1603462622.96875,25.19
1603462622.984375,22.48
1603462623.0,20.18
1603462623.015625,18.61
1603462623.03125,17.88
1603462623.046875,18.01
1603462623.0625,18.92
1603462623.078125,20.48
1603462623.09375,22.5
1603462623.109375,24.72
1603462623.125,26.82
1603462623.140625,28.45
1603462623.15625,29.28
1603462623.171875,29.16
1603462623.1875,28.08
1603462623.203125,26.2
1603462623.21875,23.8
1603462623.234375,21.17
1603462623.25,18.55
1603462623.265625,16.07
1603462623.28125,13.73
1603462623.296875,11.46
1603462623.3125,9.15
1603462623.328125,6.73
1603462623.34375,4.21
1603462623.359375,1.67
1603462623.375,-0.75
1603462623.390625,-2.97
1603462623.40625,-4.99
1603462623.421875,-6.9
1603462623.4375,-8.83
1603462623.453125,-10.87
1603462623.46875,-13.03
1603462623.484375,-15.22
1603462623.5,-17.36
1603462623.515625,-19.37
1603462623.53125,-21.27
1603462623.546875,-23.19
1603462623.5625,-25.26
1603462623.578125,-27.67
1603462623.59375,-30.55
1603462623.609375,-33.99
1603462623.625,-37.97
1603462623.640625,-42.33
1603462623.65625,-46.56
1603462623.671875,-49.89
1603462623.6875,-51.33
1603462623.703125,-49.98
1603462623.71875,-45.28
1603462623.734375,-37.31
1603462623.75,-26.78
1603462623.765625,-14.9
1603462623.78125,-3.02
1603462623.796875,7.67
1603462623.8125,16.42
1603462623.828125,22.88
1603462623.84375,27.05
1603462623.859375,29.1
1603462623.875,29.26
1603462623.890625,27.81
1603462623.90625,25.09
1603462623.921875,21.57
1603462623.9375,17.81
1603462623.953125,14.37
1603462623.96875,11.75
1603462623.984375,10.23
1603462624.0,9.87
1603462624.015625,10.59
1603462624.03125,12.19
1603462624.046875,14.43
1603462624.0625,17.01
1603462624.078125,19.55
1603462624.09375,21.65
1603462624.109375,22.96
1603462624.125,23.24
1603462624.140625,22.51
1603462624.15625,20.93
1603462624.171875,18.77
1603462624.1875,16.27
1603462624.203125,13.58
1603462624.21875,10.83
1603462624.234375,8.08
1603462624.25,5.44
1603462624.265625,3.04
1603462624.28125,0.96
1603462624.296875,-0.79
1603462624.3125,-2.3
1603462624.328125,-3.74
1603462624.34375,-5.32
1603462624.359375,-7.16
1603462624.375,-9.35
1603462624.390625,-11.85
1603462624.40625,-14.49
1603462624.421875,-17.1
1603462624.4375,-19.49
1603462624.453125,-21.56
1603462624.46875,-23.37
1603462624.484375,-25.05
1603462624.5,-26.82
1603462624.515625,-28.93
1603462624.53125,-31.6
1603462624.546875,-34.92
1603462624.5625,-38.82
1603462624.578125,-42.92
1603462624.59375,-46.53
1603462624.609375,-48.71
1603462624.625,-48.52
1603462624.640625,-45.28
1603462624.65625,-38.82
1603462624.671875,-29.62
1603462624.6875,-18.63
1603462624.703125,-7.08
1603462624.71875,3.89
1603462624.734375,13.39
1603462624.75,20.91
1603462624.765625,26.25
1603462624.78125,29.46
1603462624.796875,30.75
1603462624.8125,30.38
1603462624.828125,28.7
1603462624.84375,26.08
1603462624.859375,22.92
1603462624.875,19.66
1603462624.890625,16.69
1603462624.90625,14.38
1603462624.921875,13.0
1603462624.9375,12.69
1603462624.953125,13.46
1603462624.96875,15.15
1603462624.984375,17.47
1603462625.0,19.96
1603462625.015625,22.12
1603462625.03125,23.51
1603462625.046875,23.87
1603462625.0625,23.22
1603462625.078125,21.78
1603462625.09375,19.89
1603462625.109375,17.82
1603462625.125,15.71
1603462625.140625,13.55
1603462625.15625,11.31
1603462625.171875,8.97
1603462625.1875,6.56
1603462625.203125,4.16
1603462625.21875,1.83
1603462625.234375,-0.41
1603462625.25,-2.5
1603462625.265625,-4.45
1603462625.28125,-6.23
1603462625.296875,-7.87
1603462625.3125,-9.52
1603462625.328125,-11.4
1603462625.34375,-13.72
1603462625.359375,-16.55
1603462625.375,-19.77
1603462625.390625,-23.06
1603462625.40625,-26.11
1603462625.421875,-28.72
1603462625.4375,-30.96
1603462625.453125,-33.11
1603462625.46875,-35.59
1603462625.484375,-38.77
1603462625.5,-42.76
1603462625.515625,-47.35
1603462625.53125,-51.91
1603462625.546875,-55.52
1603462625.5625,-57.14
1603462625.578125,-55.88
1603462625.59375,-51.29
1603462625.609375,-43.46
1603462625.625,-33.11
1603462625.640625,-21.31
1603462625.65625,-9.27
1603462625.671875,1.97
1603462625.6875,11.69
1603462625.703125,19.49
1603462625.71875,25.22
1603462625.734375,28.83
1603462625.75,30.4
1603462625.765625,30.1
1603462625.78125,28.26
1603462625.796875,25.39
1603462625.8125,22.07
1603462625.828125,18.93
1603462625.84375,16.46
1603462625.859375,14.95
1603462625.875,14.48
1603462625.890625,14.97
1603462625.90625,16.26
1603462625.921875,18.13
1603462625.9375,20.38
1603462625.953125,22.72
1603462625.96875,24.87
1603462625.984375,26.5
1603462626.0,27.36
1603462626.015625,27.31
1603462626.03125,26.41
1603462626.046875,24.82
1603462626.0625,22.84
1603462626.078125,20.73
1603462626.09375,18.67
1603462626.109375,16.74
1603462626.125,14.83
1603462626.140625,12.8
1603462626.15625,10.47
1603462626.171875,7.82
1603462626.1875,4.96
1603462626.203125,2.15
1603462626.21875,-0.38
1603462626.234375,-2.5
1603462626.25,-4.25
1603462626.265625,-5.83
1603462626.28125,-7.48
1603462626.296875,-9.36
1603462626.3125,-11.59
1603462626.328125,-14.16
1603462626.34375,-17.02
1603462626.359375,-20.07
1603462626.375,-23.16
1603462626.390625,-26.16
1603462626.40625,-28.98
1603462626.421875,-31.64
1603462626.4375,-34.4
1603462626.453125,-37.57
1603462626.46875,-41.44
1603462626.484375,-45.98
1603462626.5,-50.75
1603462626.515625,-54.9
1603462626.53125,-57.32
1603462626.546875,-57.04
1603462626.5625,-53.39
1603462626.578125,-46.32
1603462626.59375,-36.36
1603462626.609375,-24.51
1603462626.625,-11.99
1603462626.640625,0.04
1603462626.65625,10.67
1603462626.671875,19.41
1603462626.6875,26.06
1603462626.703125,30.67
1603462626.71875,33.36
1603462626.734375,34.25
1603462626.75,33.47
1603462626.765625,31.27
1603462626.78125,28.07
1603462626.796875,24.52
1603462626.8125,21.31
1603462626.828125,19.0
1603462626.84375,17.87
1603462626.859375,17.81
1603462626.875,18.55
1603462626.890625,19.75
1603462626.90625,21.21
1603462626.921875,22.87
1603462626.9375,24.7
1603462626.953125,26.57
1603462626.96875,28.2
1603462626.984375,29.19
1603462627.0,29.26
1603462627.015625,28.3
1603462627.03125,26.49
1603462627.046875,24.16
1603462627.0625,21.68
1603462627.078125,19.27
1603462627.09375,17.0
1603462627.109375,14.81
1603462627.125,12.57
1603462627.140625,10.24
1603462627.15625,7.78
1603462627.171875,5.26
1603462627.1875,2.79
1603462627.203125,0.42
1603462627.21875,-1.8
1603462627.234375,-3.93
1603462627.25,-6.09
1603462627.265625,-8.39
1603462627.28125,-10.93
1603462627.296875,-13.66
1603462627.3125,-16.5
1603462627.328125,-19.31
1603462627.34375,-21.97
1603462627.359375,-24.44
1603462627.375,-26.79
1603462627.390625,-29.13
1603462627.40625,-31.6
1603462627.421875,-34.37
1603462627.4375,-37.59
1603462627.453125,-41.41
1603462627.46875,-45.83
1603462627.484375,-50.56
1603462627.5,-54.93
1603462627.515625,-57.94
1603462627.53125,-58.47
1603462627.546875,-55.65
1603462627.5625,-49.14
1603462627.578125,-39.28
1603462627.59375,-27.02
1603462627.609375,-13.64
1603462627.625,-0.51
1603462627.640625,11.23
1603462627.65625,20.77
1603462627.671875,27.7
1603462627.6875,31.97
1603462627.703125,33.82
1603462627.71875,33.71
1603462627.734375,32.2
1603462627.75,29.81
1603462627.765625,27.04
1603462627.78125,24.25
1603462627.796875,21.72
1603462627.8125,19.68
1603462627.828125,18.3
1603462627.84375,17.71
1603462627.859375,17.99
1603462627.875,19.19
1603462627.890625,21.23
1603462627.90625,23.9
1603462627.921875,26.83
1603462627.9375,29.52
1603462627.953125,31.46
1603462627.96875,32.28
1603462627.984375,31.91
1603462628.0,30.49
1603462628.015625,28.36
1603462628.03125,25.9
1603462628.046875,23.38
1603462628.0625,20.91
1603462628.078125,18.49
1603462628.09375,16.06
1603462628.109375,13.54
1603462628.125,10.91
1603462628.140625,8.19
1603462628.15625,5.49
1603462628.171875,2.97
1603462628.1875,0.74
1603462628.203125,-1.13
1603462628.21875,-2.75
1603462628.234375,-4.3
1603462628.25,-6.03
1603462628.265625,-8.11
1603462628.28125,-10.59
1603462628.296875,-13.38
1603462628.3125,-16.27
1603462628.328125,-19.07
1603462628.34375,-21.67
1603462628.359375,-24.09
1603462628.375,-26.5
1603462628.390625,-29.2
1603462628.40625,-32.54
1603462628.421875,-36.71
1603462628.4375,-41.66
1603462628.453125,-46.89
1603462628.46875,-51.48
1603462628.484375,-54.21
1603462628.5,-53.92
1603462628.515625,-49.91
1603462628.53125,-42.12
1603462628.546875,-31.27
1603462628.5625,-18.66
1603462628.578125,-5.75
1603462628.59375,6.18
1603462628.609375,16.24
1603462628.625,24.03
1603462628.640625,29.49
1603462628.65625,32.71
1603462628.671875,33.85
1603462628.6875,33.12
1603462628.703125,30.75
1603462628.71875,27.12
1603462628.734375,22.74
1603462628.75,18.16
1603462628.765625,13.98
1603462628.78125,10.71
1603462628.796875,8.75
1603462628.8125,8.27
1603462628.828125,9.23
1603462628.84375,11.39
1603462628.859375,14.33
1603462628.875,17.55
1603462628.890625,20.56
1603462628.90625,22.9
1603462628.921875,24.26
1603462628.9375,24.46
1603462628.953125,23.49
1603462628.96875,21.54
1603462628.984375,18.92
1603462629.0,15.97
1603462629.015625,12.96
1603462629.03125,10.08
1603462629.046875,7.34
1603462629.0625,4.77
1603462629.078125,2.34
1603462629.09375,0.06
1603462629.109375,-2.07
1603462629.125,-4.15
1603462629.140625,-6.32
1603462629.15625,-8.74
1603462629.171875,-11.48
1603462629.1875,-14.48
1603462629.203125,-17.5
1603462629.21875,-20.29
1603462629.234375,-22.71
1603462629.25,-24.83
1603462629.265625,-26.93
1603462629.28125,-29.42
1603462629.296875,-32.66
1603462629.3125,-36.83
1603462629.328125,-41.74
1603462629.34375,-46.85
1603462629.359375,-51.36
1603462629.375,-54.3
1603462629.390625,-54.78
1603462629.40625,-52.16
1603462629.421875,-46.18
1603462629.4375,-37.05
1603462629.453125,-25.44
1603462629.46875,-12.41
1603462629.484375,0.82
1603462629.5,13.01
1603462629.515625,23.21
1603462629.53125,30.82
1603462629.546875,35.71
1603462629.5625,38.06
1603462629.578125,38.25
1603462629.59375,36.67
1603462629.609375,33.74
1603462629.625,29.9
1603462629.640625,25.64
1603462629.65625,21.56
1603462629.671875,18.24
1603462629.6875,16.09
1603462629.703125,15.29
1603462629.71875,15.75
1603462629.734375,17.19
1603462629.75,19.23
1603462629.765625,21.53
1603462629.78125,23.8
1603462629.796875,25.79
1603462629.8125,27.25
1603462629.828125,27.96
1603462629.84375,27.68
1603462629.859375,26.29
1603462629.875,23.8
1603462629.890625,20.41
1603462629.90625,16.49
1603462629.921875,12.48
1603462629.9375,8.75
1603462629.953125,5.55
1603462629.96875,2.85
1603462629.984375,0.4
1603462630.0,-2.15
1603462630.015625,-5.09
1603462630.03125,-8.54
1603462630.046875,-12.36
1603462630.0625,-16.24
1603462630.078125,-19.89
1603462630.09375,-23.12
1603462630.109375,-25.96
1603462630.125,-28.68
1603462630.140625,-31.67
1603462630.15625,-35.33
1603462630.171875,-39.92
1603462630.1875,-45.37
1603462630.203125,-51.21
1603462630.21875,-56.53
1603462630.234375,-60.11
1603462630.25,-60.8
1603462630.265625,-57.82
1603462630.28125,-50.98
1603462630.296875,-40.81
1603462630.3125,-28.38
1603462630.328125,-15.0
1603462630.34375,-1.93
1603462630.359375,9.82
1603462630.375,19.61
1603462630.390625,27.08
1603462630.40625,32.15
1603462630.421875,34.87
1603462630.4375,35.43
1603462630.453125,34.11
1603462630.46875,31.33
1603462630.484375,27.63
1603462630.5,23.63
1603462630.515625,19.95
1603462630.53125,17.08
1603462630.546875,15.31
1603462630.5625,14.69
1603462630.578125,15.11
1603462630.59375,16.38
1603462630.609375,18.26
1603462630.625,20.46
1603462630.640625,22.61
1603462630.65625,24.27
1603462630.671875,24.99
1603462630.6875,24.48
1603462630.703125,22.67
1603462630.71875,19.79
1603462630.734375,16.25
1603462630.75,12.55
1603462630.765625,9.03
1603462630.78125,5.86
1603462630.796875,2.96
1603462630.8125,0.08
1603462630.828125,-3.06
1603462630.84375,-6.65
1603462630.859375,-10.62
1603462630.875,-14.77
1603462630.890625,-18.79
1603462630.90625,-22.48
1603462630.921875,-25.85
1603462630.9375,-29.07
1603462630.953125,-32.41
1603462630.96875,-36.14
1603462630.984375,-40.44
1603462631.0,-45.44
1603462631.015625,-51.16
1603462631.03125,-57.41
1603462631.046875,-63.64
1603462631.0625,-68.88
1603462631.078125,-71.8
1603462631.09375,-71.17
1603462631.109375,-66.24
1603462631.125,-57.09
1603462631.140625,-44.58
1603462631.15625,-30.1
1603462631.171875,-15.06
1603462631.1875,-0.61
1603462631.203125,12.54
1603462631.21875,24.05
1603462631.234375,33.71
1603462631.25,41.39
1603462631.265625,46.99
1603462631.28125,50.56
1603462631.296875,52.32
1603462631.3125,52.65
1603462631.328125,52.04
1603462631.34375,50.94
1603462631.359375,49.71
1603462631.375,48.59
1603462631.390625,47.71
1603462631.40625,47.16
1603462631.421875,47.01
1603462631.4375,47.28
1603462631.453125,47.94
1603462631.46875,48.82
1603462631.484375,49.61
1603462631.5,49.9
1603462631.515625,49.22
1603462631.53125,47.24
1603462631.546875,43.86
1603462631.5625,39.23
1603462631.578125,33.81
1603462631.59375,28.11
1603462631.609375,22.65
1603462631.625,17.71
1603462631.640625,13.36
1603462631.65625,9.47
1603462631.671875,5.83
1603462631.6875,2.26
1603462631.703125,-1.28
1603462631.71875,-4.72
1603462631.734375,-7.94
1603462631.75,-10.88
1603462631.765625,-13.59
1603462631.78125,-16.26
1603462631.796875,-19.25
1603462631.8125,-22.89
1603462631.828125,-27.42
1603462631.84375,-32.8
1603462631.859375,-38.59
1603462631.875,-43.91
1603462631.890625,-47.62
1603462631.90625,-48.52
1603462631.921875,-45.75
1603462631.9375,-39.1
1603462631.953125,-29.06
1603462631.96875,-16.76
1603462631.984375,-3.63
1603462632.0,8.91
1603462632.015625,19.81
1603462632.03125,28.45
1603462632.046875,34.66
1603462632.0625,38.52
1603462632.078125,40.2
1603462632.09375,39.95
1603462632.109375,38.06
1603462632.125,34.93
1603462632.140625,31.05
1603462632.15625,27.04
1603462632.171875,23.5
1603462632.1875,20.88
1603462632.203125,19.45
1603462632.21875,19.23
1603462632.234375,20.05
1603462632.25,21.64
1603462632.265625,23.66
1603462632.28125,25.79
1603462632.296875,27.71
1603462632.3125,29.05
1603462632.328125,29.47
1603462632.34375,28.72
1603462632.359375,26.73
1603462632.375,23.68
1603462632.390625,19.96
1603462632.40625,16.07
1603462632.421875,12.45
1603462632.4375,9.37
1603462632.453125,6.85
1603462632.46875,4.73
1603462632.484375,2.72
1603462632.5,0.54
1603462632.515625,-1.98
1603462632.53125,-4.83
1603462632.546875,-7.83
1603462632.5625,-10.69
1603462632.578125,-13.15
1603462632.59375,-15.12
1603462632.609375,-16.74
1603462632.625,-18.37
1603462632.640625,-20.42
1603462632.65625,-23.26
1603462632.671875,-27.02
1603462632.6875,-31.6
1603462632.703125,-36.63
1603462632.71875,-41.5
1603462632.734375,-45.36
1603462632.75,-47.25
1603462632.765625,-46.3
1603462632.78125,-41.96
1603462632.796875,-34.26
1603462632.8125,-23.89
1603462632.828125,-12.06
1603462632.84375,-0.16
1603462632.859375,10.57
1603462632.875,19.33
1603462632.890625,25.79
1603462632.90625,30.0
1603462632.921875,32.15
1603462632.9375,32.45
1603462632.953125,31.08
1603462632.96875,28.3
1603462632.984375,24.52
1603462633.0,20.36
1603462633.015625,16.52
1603462633.03125,13.65
1603462633.046875,12.16
1603462633.0625,12.1
1603462633.078125,13.2
1603462633.09375,15.03
1603462633.109375,17.14
1603462633.125,19.21
1603462633.140625,21.06
1603462633.15625,22.51
1603462633.171875,23.41
1603462633.1875,23.57
1603462633.203125,22.84
1603462633.21875,21.18
1603462633.234375,18.71
1603462633.25,15.64
1603462633.265625,12.24
1603462633.28125,8.75
1603462633.296875,5.41
1603462633.3125,2.35
1603462633.328125,-0.33
1603462633.34375,-2.66
1603462633.359375,-4.74
1603462633.375,-6.72
1603462633.390625,-8.74
1603462633.40625,-10.81
1603462633.421875,-12.89
1603462633.4375,-14.85
1603462633.453125,-16.62
1603462633.46875,-18.24
1603462633.484375,-19.84
1603462633.5,-21.62
1603462633.515625,-23.8
1603462633.53125,-26.57
1603462633.546875,-30.05
1603462633.5625,-34.15
1603462633.578125,-38.51
1603462633.59375,-42.42
1603462633.609375,-44.91
1603462633.625,-45.0
1603462633.640625,-41.99
1603462633.65625,-35.73
1603462633.671875,-26.71
1603462633.6875,-15.92
1603462633.703125,-4.58
1603462633.71875,6.2
1603462633.734375,15.55
1603462633.75,22.97
1603462633.765625,28.17
1603462633.78125,31.07
1603462633.796875,31.74
1603462633.8125,30.41
1603462633.828125,27.51
1603462633.84375,23.62
1603462633.859375,19.44
1603462633.875,15.64
1603462633.890625,12.75
1603462633.90625,11.11
1603462633.921875,10.81
1603462633.9375,11.77
1603462633.953125,13.75
1603462633.96875,16.43
1603462633.984375,19.44
1603462634.0,22.35
1603462634.015625,24.72
1603462634.03125,26.19
1603462634.046875,26.52
1603462634.0625,25.66
1603462634.078125,23.72
1603462634.09375,20.94
1603462634.109375,17.61
1603462634.125,14.0
1603462634.140625,10.35
1603462634.15625,6.83
1603462634.171875,3.56
1603462634.1875,0.61
1603462634.203125,-2.01
1603462634.21875,-4.32
1603462634.234375,-6.44
1603462634.25,-8.51
1603462634.265625,-10.7
1603462634.28125,-13.11
1603462634.296875,-15.77
1603462634.3125,-18.61
1603462634.328125,-21.44
1603462634.34375,-24.07
1603462634.359375,-26.35
1603462634.375,-28.31
1603462634.390625,-30.12
1603462634.40625,-32.08
1603462634.421875,-34.54
1603462634.4375,-37.76
1603462634.453125,-41.82
1603462634.46875,-46.51
1603462634.484375,-51.24
1603462634.5,-55.07
1603462634.515625,-56.94
1603462634.53125,-55.88
1603462634.546875,-51.33
1603462634.5625,-43.38
1603462634.578125,-32.75
1603462634.59375,-20.61
1603462634.609375,-8.29
1603462634.625,3.05
1603462634.640625,12.64
1603462634.65625,20.09
1603462634.671875,25.36
1603462634.6875,28.58
1603462634.703125,29.92
1603462634.71875,29.6
1603462634.734375,27.89
1603462634.75,25.18
1603462634.765625,21.99
1603462634.78125,18.89
1603462634.796875,16.45
1603462634.8125,15.06
1603462634.828125,14.86
1603462634.84375,15.74
1603462634.859375,17.4
1603462634.875,19.46
1603462634.890625,21.58
1603462634.90625,23.47
1603462634.921875,24.93
1603462634.9375,25.84
1603462634.953125,26.15
1603462634.96875,25.87
1603462634.984375,25.03
1603462635.0,23.69
1603462635.015625,21.87
1603462635.03125,19.66
1603462635.046875,17.15
1603462635.0625,14.49
1603462635.078125,11.86
1603462635.09375,9.42
1603462635.109375,7.25
1603462635.125,5.33
1603462635.140625,3.54
1603462635.15625,1.73
1603462635.171875,-0.18
1603462635.1875,-2.22
1603462635.203125,-4.3
1603462635.21875,-6.32
1603462635.234375,-8.2
1603462635.25,-9.96
1603462635.265625,-11.67
1603462635.28125,-13.47
1603462635.296875,-15.51
1603462635.3125,-17.8
1603462635.328125,-20.28
1603462635.34375,-22.77
1603462635.359375,-25.07
1603462635.375,-27.06
1603462635.390625,-28.77
1603462635.40625,-30.37
1603462635.421875,-32.17
1603462635.4375,-34.5
1603462635.453125,-37.63
1603462635.46875,-41.67
1603462635.484375,-46.45
1603462635.5,-51.48
1603462635.515625,-55.94
1603462635.53125,-58.77
1603462635.546875,-58.96
1603462635.5625,-55.82
1603462635.578125,-49.2
1603462635.59375,-39.61
1603462635.609375,-28.09
1603462635.625,-15.91
1603462635.640625,-4.23
1603462635.65625,6.08
1603462635.671875,14.59
1603462635.6875,21.2
1603462635.703125,25.96
1603462635.71875,29.01
1603462635.734375,30.44
1603462635.75,30.35
1603462635.765625,28.94
1603462635.78125,26.54
1603462635.796875,23.63
1603462635.8125,20.77
1603462635.828125,18.46
1603462635.84375,17.05
1603462635.859375,16.65
1603462635.875,17.17
1603462635.890625,18.42
1603462635.90625,20.14
1603462635.921875,22.11
1603462635.9375,24.12
1603462635.953125,25.95
1603462635.96875,27.37
1603462635.984375,28.12
1603462636.0,28.0
1603462636.015625,26.94
1603462636.03125,25.04
1603462636.046875,22.59
1603462636.0625,19.92
1603462636.078125,17.34
1603462636.09375,15.03
1603462636.109375,12.98
1603462636.125,11.08
1603462636.140625,9.25
1603462636.15625,7.46
1603462636.171875,5.8
1603462636.1875,4.34
1603462636.203125,3.12
1603462636.21875,2.02
1603462636.234375,0.88
1603462636.25,-0.48
1603462636.265625,-2.11
1603462636.28125,-3.93
1603462636.296875,-5.77
1603462636.3125,-7.46
1603462636.328125,-8.95
1603462636.34375,-10.36
1603462636.359375,-11.87
1603462636.375,-13.68
1603462636.390625,-15.91
1603462636.40625,-18.51
1603462636.421875,-21.31
1603462636.4375,-24.09
1603462636.453125,-26.63
1603462636.46875,-28.83
1603462636.484375,-30.76
1603462636.5,-32.63
1603462636.515625,-34.78
1603462636.53125,-37.58
1603462636.546875,-41.28
1603462636.5625,-45.91
1603462636.578125,-51.09
1603462636.59375,-56.09
1603462636.609375,-59.87
1603462636.625,-61.4
1603462636.640625,-59.86
1603462636.65625,-54.89
1603462636.671875,-46.71
1603462636.6875,-36.04
1603462636.703125,-23.92
1603462636.71875,-11.52
1603462636.734375,0.12
1603462636.75,10.18
1603462636.765625,18.14
1603462636.78125,23.79
1603462636.796875,27.19
1603462636.8125,28.6
1603462636.828125,28.41
1603462636.84375,27.01
1603462636.859375,24.8
1603462636.875,22.16
1603462636.890625,19.54
1603462636.90625,17.36
1603462636.921875,16.02
1603462636.9375,15.79
1603462636.953125,16.7
1603462636.96875,18.51
1603462636.984375,20.85
1603462637.0,23.34
1603462637.015625,25.69
1603462637.03125,27.74
1603462637.046875,29.42
1603462637.0625,30.62
1603462637.078125,31.2
1603462637.09375,30.95
1603462637.109375,29.8
1603462637.125,27.83
1603462637.140625,25.35
1603462637.15625,22.76
1603462637.171875,20.37
1603462637.1875,18.33
1603462637.203125,16.58
1603462637.21875,14.96
1603462637.234375,13.31
1603462637.25,11.6
1603462637.265625,9.88
1603462637.28125,8.22
1603462637.296875,6.6
1603462637.3125,4.95
1603462637.328125,3.16
1603462637.34375,1.22
1603462637.359375,-0.78
1603462637.375,-2.73
1603462637.390625,-4.54
1603462637.40625,-6.23
1603462637.421875,-7.94
1603462637.4375,-9.85
1603462637.453125,-12.07
1603462637.46875,-14.57
1603462637.484375,-17.23
1603462637.5,-19.9
1603462637.515625,-22.45
1603462637.53125,-24.82
1603462637.546875,-27.04
1603462637.5625,-29.21
1603462637.578125,-31.47
1603462637.59375,-34.07
1603462637.609375,-37.25
1603462637.625,-41.19
1603462637.640625,-45.81
1603462637.65625,-50.72
1603462637.671875,-55.22
1603462637.6875,-58.35
1603462637.703125,-59.21
1603462637.71875,-57.09
1603462637.734375,-51.79
1603462637.75,-43.55
1603462637.765625,-33.07
1603462637.78125,-21.32
1603462637.796875,-9.37
1603462637.8125,1.82
1603462637.828125,11.52
1603462637.84375,19.25
1603462637.859375,24.8
1603462637.875,28.11
1603462637.890625,29.29
1603462637.90625,28.56
1603462637.921875,26.26
1603462637.9375,22.91
1603462637.953125,19.17
1603462637.96875,15.74
1603462637.984375,13.25
1603462638.0,12.05
1603462638.015625,12.22
1603462638.03125,13.54
1603462638.046875,15.64
1603462638.0625,18.12
1603462638.078125,20.7
1603462638.09375,23.16
1603462638.109375,25.36
1603462638.125,27.12
1603462638.140625,28.22
1603462638.15625,28.47
1603462638.171875,27.74
1603462638.1875,26.07
1603462638.203125,23.68
1603462638.21875,20.91
1603462638.234375,18.07
1603462638.25,15.41
1603462638.265625,13.03
1603462638.28125,10.9
1603462638.296875,8.95
1603462638.3125,7.04
1603462638.328125,5.08
1603462638.34375,2.98
1603462638.359375,0.76
1603462638.375,-1.52
1603462638.390625,-3.73
1603462638.40625,-5.76
1603462638.421875,-7.58
1603462638.4375,-9.3
1603462638.453125,-11.11
1603462638.46875,-13.22
1603462638.484375,-15.71
1603462638.5,-18.53
1603462638.515625,-21.49
1603462638.53125,-24.39
1603462638.546875,-27.09
1603462638.5625,-29.59
1603462638.578125,-31.97
1603462638.59375,-34.46
1603462638.609375,-37.29
1603462638.625,-40.72
1603462638.640625,-44.91
1603462638.65625,-49.81
1603462638.671875,-55.04
1603462638.6875,-59.81
1603462638.703125,-63.05
1603462638.71875,-63.64
1603462638.734375,-60.79
1603462638.75,-54.22
1603462638.765625,-44.35
1603462638.78125,-32.15
1603462638.796875,-18.92
1603462638.8125,-5.97
1603462638.828125,5.62
1603462638.84375,15.11
1603462638.859375,22.19
1603462638.875,26.89
1603462638.890625,29.46
1603462638.90625,30.31
1603462638.921875,29.88
1603462638.9375,28.55
1603462638.953125,26.7
1603462638.96875,24.64
1603462638.984375,22.62
1603462639.0,20.89
1603462639.015625,19.63
1603462639.03125,19.02
1603462639.046875,19.16
1603462639.0625,20.08
1603462639.078125,21.76
1603462639.09375,24.03
1603462639.109375,26.59
1603462639.125,29.02
1603462639.140625,30.86
1603462639.15625,31.7
1603462639.171875,31.35
1603462639.1875,29.88
1603462639.203125,27.62
1603462639.21875,25.01
1603462639.234375,22.48
1603462639.25,20.28
1603462639.265625,18.47
1603462639.28125,16.97
1603462639.296875,15.56
1603462639.3125,14.04
1603462639.328125,12.26
1603462639.34375,10.18
1603462639.359375,7.82
1603462639.375,5.31
1603462639.390625,2.79
1603462639.40625,0.38
1603462639.421875,-1.87
1603462639.4375,-4.04
1603462639.453125,-6.28
1603462639.46875,-8.76
1603462639.484375,-11.53
1603462639.5,-14.52
1603462639.515625,-17.55
1603462639.53125,-20.41
1603462639.546875,-22.98
1603462639.5625,-25.3
1603462639.578125,-27.54
1603462639.59375,-30.02
1603462639.609375,-33.1
1603462639.625,-37.02
1603462639.640625,-41.86
1603462639.65625,-47.28
1603462639.671875,-52.52
1603462639.6875,-56.44
1603462639.703125,-57.78
1603462639.71875,-55.56
1603462639.734375,-49.39
1603462639.75,-39.7
1603462639.765625,-27.54
1603462639.78125,-14.37
1603462639.796875,-1.55
1603462639.8125,9.89
1603462639.828125,19.4
1603462639.84375,26.81
1603462639.859375,32.2
1603462639.875,35.67
1603462639.890625,37.39
1603462639.90625,37.53
1603462639.921875,36.35
1603462639.9375,34.25
1603462639.953125,31.71
1603462639.96875,29.24
1603462639.984375,27.26
1603462640.0,26.0
1603462640.015625,25.57
1603462640.03125,25.92
1603462640.046875,26.99
1603462640.0625,28.66
1603462640.078125,30.79
1603462640.09375,33.13
1603462640.109375,35.29
1603462640.125,36.8
1603462640.140625,37.2
1603462640.15625,36.23
1603462640.171875,33.96
1603462640.1875,30.75
1603462640.203125,27.16
1603462640.21875,23.7
1603462640.234375,20.69
1603462640.25,18.19
1603462640.265625,16.03
1603462640.28125,13.98
1603462640.296875,11.83
1603462640.3125,9.5
1603462640.328125,7.05
1603462640.34375,4.64
1603462640.359375,2.47
1603462640.375,0.68
1603462640.390625,-0.72
1603462640.40625,-1.85
1603462640.421875,-3.02
1603462640.4375,-4.51
1603462640.453125,-6.53
1603462640.46875,-9.07
1603462640.484375,-11.91
1603462640.5,-14.76
1603462640.515625,-17.38
1603462640.53125,-19.68
1603462640.546875,-21.78
1603462640.5625,-23.92
1603462640.578125,-26.41
1603462640.59375,-29.5
1603462640.609375,-33.32
1603462640.625,-37.75
1603462640.640625,-42.36
1603462640.65625,-46.37
1603462640.671875,-48.75
1603462640.6875,-48.53
1603462640.703125,-45.07
1603462640.71875,-38.32
1603462640.734375,-28.82
1603462640.75,-17.56
1603462640.765625,-5.7
1603462640.78125,5.7
1603462640.796875,15.78
1603462640.8125,23.96
1603462640.828125,29.92
1603462640.84375,33.59
1603462640.859375,35.1
1603462640.875,34.78
1603462640.890625,33.04
1603462640.90625,30.36
1603462640.921875,27.19
1603462640.9375,24.03
1603462640.953125,21.33
1603462640.96875,19.48
1603462640.984375,18.71
1603462641.0,19.0
1603462641.015625,20.17
1603462641.03125,21.86
1603462641.046875,23.75
1603462641.0625,25.59
1603462641.078125,27.23
1603462641.09375,28.53
1603462641.109375,29.33
1603462641.125,29.45
1603462641.140625,28.74
1603462641.15625,27.21
1603462641.171875,25.05
1603462641.1875,22.58
1603462641.203125,20.09
1603462641.21875,17.8
1603462641.234375,15.71
1603462641.25,13.68
1603462641.265625,11.53
1603462641.28125,9.17
1603462641.296875,6.59
1603462641.3125,3.95
1603462641.328125,1.38
1603462641.34375,-0.99
1603462641.359375,-3.16
1603462641.375,-5.19
1603462641.390625,-7.17
1603462641.40625,-9.18
1603462641.421875,-11.24
1603462641.4375,-13.32
1603462641.453125,-15.39
1603462641.46875,-17.45
1603462641.484375,-19.53
1603462641.5,-21.7
1603462641.515625,-24.08
1603462641.53125,-26.83
1603462641.546875,-30.1
1603462641.5625,-34.02
1603462641.578125,-38.54
1603462641.59375,-43.36
1603462641.609375,-47.87
1603462641.625,-51.17
1603462641.640625,-52.27
1603462641.65625,-50.38
1603462641.671875,-45.13
1603462641.6875,-36.75
1603462641.703125,-26.02
1603462641.71875,-14.1
1603462641.734375,-2.18
1603462641.75,8.7
1603462641.765625,17.88
1603462641.78125,25.02
1603462641.796875,30.05
1603462641.8125,32.99
1603462641.828125,33.92
1603462641.84375,32.99
1603462641.859375,30.47
1603462641.875,26.9
1603462641.890625,22.96
1603462641.90625,19.4
1603462641.921875,16.77
1603462641.9375,15.32
1603462641.953125,14.98
1603462641.96875,15.48
1603462641.984375,16.51
1603462642.0,17.85
1603462642.015625,19.41
1603462642.03125,21.07
1603462642.046875,22.66
1603462642.0625,23.9
1603462642.078125,24.48
1603462642.09375,24.21
1603462642.109375,23.11
1603462642.125,21.37
1603462642.140625,19.26
1603462642.15625,17.01
1603462642.171875,14.75
1603462642.1875,12.47
1603462642.203125,10.15
1603462642.21875,7.76
1603462642.234375,5.32
1603462642.25,2.94
1603462642.265625,0.67
1603462642.28125,-1.41
1603462642.296875,-3.35
1603462642.3125,-5.22
1603462642.328125,-7.13
1603462642.34375,-9.16
1603462642.359375,-11.37
1603462642.375,-13.77
1603462642.390625,-16.3
1603462642.40625,-18.87
1603462642.421875,-21.33
1603462642.4375,-23.58
1603462642.453125,-25.57
1603462642.46875,-27.4
1603462642.484375,-29.32
1603462642.5,-31.68
1603462642.515625,-34.77
1603462642.53125,-38.64
1603462642.546875,-42.89
1603462642.5625,-46.67
1603462642.578125,-48.89
1603462642.59375,-48.54
1603462642.609375,-45.02
1603462642.625,-38.35
1603462642.640625,-29.21
1603462642.65625,-18.66
1603462642.671875,-7.84
1603462642.6875,2.27
1603462642.703125,11.02
1603462642.71875,18.09
1603462642.734375,23.37
1603462642.75,26.86
1603462642.765625,28.58
1603462642.78125,28.61
1603462642.796875,27.11
1603462642.8125,24.4
1603462642.828125,20.96
1603462642.84375,17.37
1603462642.859375,14.21
1603462642.875,11.93
1603462642.890625,10.77
1603462642.90625,10.75
1603462642.921875,11.71
1603462642.9375,13.37
1603462642.953125,15.48
1603462642.96875,17.74
1603462642.984375,19.88
1603462643.0,21.6
1603462643.015625,22.64
1603462643.03125,22.81
1603462643.046875,22.02
1603462643.0625,20.39
1603462643.078125,18.08
1603462643.09375,15.34
1603462643.109375,12.42
1603462643.125,9.47
1603462643.140625,6.62
1603462643.15625,3.92
1603462643.171875,1.4
1603462643.1875,-0.96
1603462643.203125,-3.18
1603462643.21875,-5.3
1603462643.234375,-7.38
1603462643.25,-9.48
1603462643.265625,-11.6
1603462643.28125,-13.72
1603462643.296875,-15.79
1603462643.3125,-17.74
1603462643.328125,-19.59
1603462643.34375,-21.4
1603462643.359375,-23.34
1603462643.375,-25.62
1603462643.390625,-28.45
1603462643.40625,-31.95
1603462643.421875,-36.08
1603462643.4375,-40.56
1603462643.453125,-44.89
1603462643.46875,-48.39
1603462643.484375,-50.27
1603462643.5,-49.82
1603462643.515625,-46.59
1603462643.53125,-40.51
1603462643.546875,-31.96
1603462643.5625,-21.73
1603462643.578125,-10.81
1603462643.59375,-0.21
1603462643.609375,9.26
1603462643.625,17.04
1603462643.640625,22.84
1603462643.65625,26.55
1603462643.671875,28.23
1603462643.6875,28.04
1603462643.703125,26.24
1603462643.71875,23.26
1603462643.734375,19.59
1603462643.75,15.78
1603462643.765625,12.36
1603462643.78125,9.78
1603462643.796875,8.32
1603462643.8125,8.09
1603462643.828125,9.04
1603462643.84375,10.94
1603462643.859375,13.48
1603462643.875,16.25
1603462643.890625,18.86
1603462643.90625,20.94
1603462643.921875,22.2
1603462643.9375,22.41
1603462643.953125,21.47
1603462643.96875,19.38
1603462643.984375,16.33
1603462644.0,12.67
1603462644.015625,8.85
1603462644.03125,5.26
1603462644.046875,2.17
1603462644.0625,-0.43
1603462644.078125,-2.7
1603462644.09375,-4.92
1603462644.109375,-7.29
1603462644.125,-9.91
1603462644.140625,-12.74
1603462644.15625,-15.66
1603462644.171875,-18.52
1603462644.1875,-21.21
1603462644.203125,-23.68
1603462644.21875,-26.0
1603462644.234375,-28.36
1603462644.25,-31.02
1603462644.265625,-34.2
1603462644.28125,-37.86
1603462644.296875,-41.6
1603462644.3125,-44.59
1603462644.328125,-45.78
1603462644.34375,-44.27
1603462644.359375,-39.58
1603462644.375,-31.87
1603462644.390625,-21.92
1603462644.40625,-10.85
1603462644.421875,0.15
1603462644.4375,10.12
1603462644.453125,18.4
1603462644.46875,24.7
1603462644.484375,28.96
1603462644.5,31.26
1603462644.515625,31.79
1603462644.53125,30.81
1603462644.546875,28.57
1603462644.5625,25.44
1603462644.578125,21.82
1603462644.59375,18.19
1603462644.609375,15.04
1603462644.625,12.77
1603462644.640625,11.66
1603462644.65625,11.72
1603462644.671875,12.77
1603462644.6875,14.45
1603462644.703125,16.34
1603462644.71875,18.04
1603462644.734375,19.23
1603462644.75,19.73
1603462644.765625,19.47
1603462644.78125,18.51
1603462644.796875,16.93
1603462644.8125,14.85
1603462644.828125,12.33
1603462644.84375,9.41
1603462644.859375,6.1
1603462644.875,2.47
1603462644.890625,-1.32
1603462644.90625,-5.04
1603462644.921875,-8.43
1603462644.9375,-11.36
1603462644.953125,-13.87
1603462644.96875,-16.2
1603462644.984375,-18.69
1603462645.0,-21.69
1603462645.015625,-25.4
1603462645.03125,-29.77
1603462645.046875,-34.47
1603462645.0625,-38.82
1603462645.078125,-41.98
1603462645.09375,-43.08
1603462645.109375,-41.45
1603462645.125,-36.84
1603462645.140625,-29.51
1603462645.15625,-20.19
1603462645.171875,-9.88
1603462645.1875,0.37
1603462645.203125,9.7
1603462645.21875,17.52
1603462645.234375,23.5
1603462645.25,27.55
1603462645.265625,29.7
1603462645.28125,30.04
1603462645.296875,28.76
1603462645.3125,26.19
1603462645.328125,22.75
1603462645.34375,19.03
1603462645.359375,15.64
1603462645.375,13.08
1603462645.390625,11.64
1603462645.40625,11.32
1603462645.421875,11.9
1603462645.4375,13.0
1603462645.453125,14.21
1603462645.46875,15.23
1603462645.484375,15.92
1603462645.5,16.2
1603462645.515625,16.07
1603462645.53125,15.48
1603462645.546875,14.36
1603462645.5625,12.59
1603462645.578125,10.13
1603462645.59375,7.01
1603462645.609375,3.38
1603462645.625,-0.49
1603462645.640625,-4.29
1603462645.65625,-7.72
1603462645.671875,-10.62
1603462645.6875,-12.98
1603462645.703125,-15.0
1603462645.71875,-17.08
1603462645.734375,-19.68
1603462645.75,-23.13
1603462645.765625,-27.52
1603462645.78125,-32.52
1603462645.796875,-37.44
1603462645.8125,-41.32
1603462645.828125,-43.19
1603462645.84375,-42.28
1603462645.859375,-38.24
1603462645.875,-31.23
1603462645.890625,-21.91
1603462645.90625,-11.27
1603462645.921875,-0.43
1603462645.9375,9.59
1603462645.953125,18.04
1603462645.96875,24.49
1603462645.984375,28.81
1603462646.0,31.07
1603462646.015625,31.48
1603462646.03125,30.3
1603462646.046875,27.93
1603462646.0625,24.82
1603462646.078125,21.45
1603462646.09375,18.3
1603462646.109375,15.69
1603462646.125,13.87
1603462646.140625,12.95
1603462646.15625,12.95
1603462646.171875,13.79
1603462646.1875,15.23
1603462646.203125,16.94
1603462646.21875,18.5
1603462646.234375,19.53
1603462646.25,19.82
1603462646.265625,19.33
1603462646.28125,18.19
1603462646.296875,16.52
1603462646.3125,14.41
1603462646.328125,11.82
1603462646.34375,8.76
1603462646.359375,5.27
1603462646.375,1.56
1603462646.390625,-2.11
1603462646.40625,-5.5
1603462646.421875,-8.51
1603462646.4375,-11.18
1603462646.453125,-13.64
1603462646.46875,-16.03
1603462646.484375,-18.5
1603462646.5,-21.18
1603462646.515625,-24.21
1603462646.53125,-27.72
1603462646.546875,-31.76
1603462646.5625,-36.1
1603462646.578125,-40.16
1603462646.59375,-43.07
1603462646.609375,-43.83
1603462646.625,-41.67
1603462646.640625,-36.27
1603462646.65625,-27.94
1603462646.671875,-17.54
1603462646.6875,-6.25
1603462646.703125,4.73
1603462646.71875,14.44
1603462646.734375,22.27
1603462646.75,28.0
1603462646.765625,31.61
1603462646.78125,33.24
1603462646.796875,33.04
1603462646.8125,31.22
1603462646.828125,28.14
1603462646.84375,24.31
1603462646.859375,20.4
1603462646.875,17.1
1603462646.890625,14.93
1603462646.90625,14.15
1603462646.921875,14.69
1603462646.9375,16.24
1603462646.953125,18.42
1603462646.96875,20.86
1603462646.984375,23.26
1603462647.0,25.39
1603462647.015625,27.02
1603462647.03125,27.88
1603462647.046875,27.76
1603462647.0625,26.56
1603462647.078125,24.33
1603462647.09375,21.29
1603462647.109375,17.76
1603462647.125,14.1
1603462647.140625,10.6
1603462647.15625,7.45
1603462647.171875,4.7
1603462647.1875,2.26
1603462647.203125,-0.08
1603462647.21875,-2.51
1603462647.234375,-5.19
1603462647.25,-8.12
1603462647.265625,-11.17
1603462647.28125,-14.1
1603462647.296875,-16.69
1603462647.3125,-18.83
1603462647.328125,-20.64
1603462647.34375,-22.38
1603462647.359375,-24.46
1603462647.375,-27.26
1603462647.390625,-31.0
1603462647.40625,-35.65
1603462647.421875,-40.79
1603462647.4375,-45.63
1603462647.453125,-49.13
1603462647.46875,-50.22
1603462647.484375,-48.11
1603462647.5,-42.54
1603462647.515625,-33.86
1603462647.53125,-22.98
1603462647.546875,-11.13
1603462647.5625,0.45
1603462647.578125,10.76
1603462647.59375,19.18
1603462647.609375,25.44
1603462647.625,29.54
1603462647.640625,31.57
1603462647.65625,31.68
1603462647.671875,30.09
1603462647.6875,27.14
1603462647.703125,23.33
1603462647.71875,19.32
1603462647.734375,15.78
1603462647.75,13.28
1603462647.765625,12.18
1603462647.78125,12.53
1603462647.796875,14.13
1603462647.8125,16.53
1603462647.828125,19.22
1603462647.84375,21.7
1603462647.859375,23.62
1603462647.875,24.79
1603462647.890625,25.16
1603462647.90625,24.76
1603462647.921875,23.64
1603462647.9375,21.87
1603462647.953125,19.57
1603462647.96875,16.89
1603462647.984375,14.06
1603462648.0,11.27
1603462648.015625,8.62
1603462648.03125,6.13
1603462648.046875,3.73
1603462648.0625,1.37
1603462648.078125,-1.01
1603462648.09375,-3.42
1603462648.109375,-5.86
1603462648.125,-8.33
1603462648.140625,-10.8
1603462648.15625,-13.21
1603462648.171875,-15.43
1603462648.1875,-17.4
1603462648.203125,-19.13
1603462648.21875,-20.8
1603462648.234375,-22.72
1603462648.25,-25.25
1603462648.265625,-28.66
1603462648.28125,-33.0
1603462648.296875,-37.99
1603462648.3125,-43.03
1603462648.328125,-47.21
1603462648.34375,-49.57
1603462648.359375,-49.28
1603462648.375,-45.91
1603462648.390625,-39.55
1603462648.40625,-30.74
1603462648.421875,-20.35
1603462648.4375,-9.35
1603462648.453125,1.36
1603462648.46875,11.06
1603462648.484375,19.2
1603462648.5,25.44
1603462648.515625,29.6
1603462648.53125,31.73
1603462648.546875,32.04
1603462648.5625,30.88
1603462648.578125,28.68
1603462648.59375,25.85
1603462648.609375,22.83
1603462648.625,20.03
1603462648.640625,17.83
1603462648.65625,16.56
1603462648.671875,16.35
1603462648.6875,17.18
1603462648.703125,18.84
1603462648.71875,20.96
1603462648.734375,23.16
1603462648.75,25.06
1603462648.765625,26.36
1603462648.78125,26.84
1603462648.796875,26.36
1603462648.8125,24.91
1603462648.828125,22.63
1603462648.84375,19.78
1603462648.859375,16.73
1603462648.875,13.8
1603462648.890625,11.23
1603462648.90625,9.07
1603462648.921875,7.2
1603462648.9375,5.41
1603462648.953125,3.52
1603462648.96875,1.46
1603462648.984375,-0.71
1603462649.0,-2.87
1603462649.015625,-4.89
1603462649.03125,-6.75
1603462649.046875,-8.52
1603462649.0625,-10.33
1603462649.078125,-12.29
1603462649.09375,-14.43
1603462649.109375,-16.74
1603462649.125,-19.1
1603462649.140625,-21.41
1603462649.15625,-23.6
1603462649.171875,-25.7
1603462649.1875,-27.78
1603462649.203125,-30.03
1603462649.21875,-32.66
1603462649.234375,-35.88
1603462649.25,-39.78
1603462649.265625,-44.22
1603462649.28125,-48.81
1603462649.296875,-52.83
1603462649.3125,-55.41
1603462649.328125,-55.69
1603462649.34375,-53.02
1603462649.359375,-47.18
1603462649.375,-38.44
1603462649.390625,-27.54
1603462649.40625,-15.54
1603462649.421875,-3.62
1603462649.4375,7.13
1603462649.453125,15.92
1603462649.46875,22.35
1603462649.484375,26.42
1603462649.5,28.39
1603462649.515625,28.69
1603462649.53125,27.78
1603462649.546875,26.08
1603462649.5625,23.96
1603462649.578125,21.76
1603462649.59375,19.79
1603462649.609375,18.34
1603462649.625,17.64
1603462649.640625,17.77
1603462649.65625,18.7
1603462649.671875,20.24
1603462649.6875,22.18
1603462649.703125,24.29
1603462649.71875,26.38
1603462649.734375,28.28
1603462649.75,29.87
1603462649.765625,30.94
1603462649.78125,31.3
1603462649.796875,30.81
1603462649.8125,29.42
1603462649.828125,27.29
1603462649.84375,24.7
1603462649.859375,22.0
1603462649.875,19.48
1603462649.890625,17.26
1603462649.90625,15.27
1603462649.921875,13.37
1603462649.9375,11.4
1603462649.953125,9.27
1603462649.96875,6.99
1603462649.984375,4.62
1603462650.0,2.23
1603462650.015625,-0.06
1603462650.03125,-2.13
1603462650.046875,-3.9
1603462650.0625,-5.32
1603462650.078125,-6.51
1603462650.09375,-7.74
1603462650.109375,-9.28
1603462650.125,-11.36
1603462650.140625,-14.01
1603462650.15625,-17.06
1603462650.171875,-20.19
1603462650.1875,-23.08
1603462650.203125,-25.56
1603462650.21875,-27.64
1603462650.234375,-29.52
1603462650.25,-31.56
1603462650.265625,-34.15
1603462650.28125,-37.54
1603462650.296875,-41.72
1603462650.3125,-46.28
1603462650.328125,-50.4
1603462650.34375,-52.99
1603462650.359375,-52.96
1603462650.375,-49.63
1603462650.390625,-42.89
1603462650.40625,-33.29
1603462650.421875,-21.9
1603462650.4375,-9.97
1603462650.453125,1.35
1603462650.46875,11.26
1603462650.484375,19.35
1603462650.5,25.58
1603462650.515625,30.12
1603462650.53125,33.26
1603462650.546875,35.19
1603462650.5625,36.02
1603462650.578125,35.74
1603462650.59375,34.29
1603462650.609375,31.76
1603462650.625,28.41
1603462650.640625,24.75
1603462650.65625,21.37
1603462650.671875,18.83
1603462650.6875,17.45
1603462650.703125,17.31
1603462650.71875,18.19
1603462650.734375,19.78
1603462650.75,21.69
1603462650.765625,23.58
1603462650.78125,25.19
1603462650.796875,26.32
1603462650.8125,26.86
1603462650.828125,26.79
1603462650.84375,26.12
1603462650.859375,24.89
1603462650.875,23.1
1603462650.890625,20.78
1603462650.90625,17.98
1603462650.921875,14.84
1603462650.9375,11.55
1603462650.953125,8.34
1603462650.96875,5.41
1603462650.984375,2.83
1603462651.0,0.55
1603462651.015625,-1.55
1603462651.03125,-3.61
1603462651.046875,-5.68
1603462651.0625,-7.69
1603462651.078125,-9.54
1603462651.09375,-11.14
1603462651.109375,-12.55
1603462651.125,-13.95
1603462651.140625,-15.61
1603462651.15625,-17.71
1603462651.171875,-20.26
1603462651.1875,-23.1
1603462651.203125,-25.93
1603462651.21875,-28.52
1603462651.234375,-30.74
1603462651.25,-32.62
1603462651.265625,-34.29
1603462651.28125,-35.96
1603462651.296875,-37.84
1603462651.3125,-40.21
1603462651.328125,-43.29
1603462651.34375,-47.15
1603462651.359375,-51.56
1603462651.375,-55.88
1603462651.390625,-59.11
1603462651.40625,-60.18
1603462651.421875,-58.23
1603462651.4375,-52.92
1603462651.453125,-44.5
1603462651.46875,-33.77
1603462651.484375,-21.79
1603462651.5,-9.72
1603462651.515625,1.44
1603462651.53125,10.95
1603462651.546875,18.36
1603462651.5625,23.52
1603462651.578125,26.56
1603462651.59375,27.74
1603462651.609375,27.44
1603462651.625,26.04
1603462651.640625,23.89
1603462651.65625,21.34
1603462651.671875,18.77
1603462651.6875,16.57
1603462651.703125,15.09
1603462651.71875,14.53
1603462651.734375,14.91
1603462651.75,16.08
1603462651.765625,17.84
1603462651.78125,19.97
1603462651.796875,22.3
1603462651.8125,24.65
1603462651.828125,26.75
1603462651.84375,28.29
1603462651.859375,28.93
1603462651.875,28.45
1603462651.890625,26.88
1603462651.90625,24.52
1603462651.921875,21.81
1603462651.9375,19.2
1603462651.953125,16.95
1603462651.96875,15.06
1603462651.984375,13.36
1603462652.0,11.62
1603462652.015625,9.68
1603462652.03125,7.52
1603462652.046875,5.25
1603462652.0625,3.03
1603462652.078125,1.01
1603462652.09375,-0.73
1603462652.109375,-2.22
1603462652.125,-3.55
1603462652.140625,-4.88
1603462652.15625,-6.4
1603462652.171875,-8.24
1603462652.1875,-10.47
1603462652.203125,-13.05
1603462652.21875,-15.8
1603462652.234375,-18.55
1603462652.25,-21.15
1603462652.265625,-23.57
1603462652.28125,-25.94
1603462652.296875,-28.5
1603462652.3125,-31.52
1603462652.328125,-35.2
1603462652.34375,-39.51
1603462652.359375,-44.11
1603462652.375,-48.36
1603462652.390625,-51.45
1603462652.40625,-52.51
1603462652.421875,-50.88
1603462652.4375,-46.26
1603462652.453125,-38.79
1603462652.46875,-29.07
1603462652.484375,-18.05
1603462652.5,-6.77
1603462652.515625,3.77
1603462652.53125,12.85
1603462652.546875,20.09
1603462652.5625,25.34
1603462652.578125,28.63
1603462652.59375,30.08
1603462652.609375,29.77
1603462652.625,27.95
1603462652.640625,24.99
1603462652.65625,21.42
1603462652.671875,17.89
1603462652.6875,14.97
1603462652.703125,13.04
1603462652.71875,12.27
1603462652.734375,12.63
1603462652.75,13.97
1603462652.765625,16.01
1603462652.78125,18.47
1603462652.796875,20.97
1603462652.8125,23.15
1603462652.828125,24.7
1603462652.84375,25.44
1603462652.859375,25.32
1603462652.875,24.38
1603462652.890625,22.74
1603462652.90625,20.58
1603462652.921875,18.15
1603462652.9375,15.7
1603462652.953125,13.43
1603462652.96875,11.41
1603462652.984375,9.52
1603462653.0,7.59
1603462653.015625,5.42
1603462653.03125,3.0
1603462653.046875,0.47
1603462653.0625,-1.94
1603462653.078125,-4.05
1603462653.09375,-5.81
1603462653.109375,-7.37
1603462653.125,-8.93
1603462653.140625,-10.74
1603462653.15625,-12.94
1603462653.171875,-15.57
1603462653.1875,-18.51
1603462653.203125,-21.58
1603462653.21875,-24.54
1603462653.234375,-27.19
1603462653.25,-29.45
1603462653.265625,-31.45
1603462653.28125,-33.43
1603462653.296875,-35.74
1603462653.3125,-38.68
1603462653.328125,-42.38
1603462653.34375,-46.7
1603462653.359375,-51.16
1603462653.375,-55.02
1603462653.390625,-57.38
1603462653.40625,-57.36
1603462653.421875,-54.31
1603462653.4375,-48.03
1603462653.453125,-38.82
1603462653.46875,-27.47
1603462653.484375,-15.1
1603462653.5,-2.88
1603462653.515625,8.17
1603462653.53125,17.32
1603462653.546875,24.24
1603462653.5625,28.88
1603462653.578125,31.45
1603462653.59375,32.25
1603462653.609375,31.66
1603462653.625,30.05
1603462653.640625,27.82
1603462653.65625,25.38
1603462653.671875,23.1
1603462653.6875,21.3
1603462653.703125,20.2
1603462653.71875,19.88
1603462653.734375,20.36
1603462653.75,21.55
1603462653.765625,23.35
1603462653.78125,25.62
1603462653.796875,28.14
1603462653.8125,30.61
1603462653.828125,32.68
1603462653.84375,33.93
1603462653.859375,34.06
1603462653.875,32.96
1603462653.890625,30.79
1603462653.90625,27.93
1603462653.921875,24.85
1603462653.9375,21.98
1603462653.953125,19.54
1603462653.96875,17.48
1603462653.984375,15.6
1603462654.0,13.64
1603462654.015625,11.41
1603462654.03125,8.88
1603462654.046875,6.14
1603462654.0625,3.39
1603462654.078125,0.81
1603462654.09375,-1.45
1603462654.109375,-3.32
1603462654.125,-4.82
1603462654.140625,-6.08
1603462654.15625,-7.31
1603462654.171875,-8.76
1603462654.1875,-10.64
1603462654.203125,-13.0
1603462654.21875,-15.73
1603462654.234375,-18.6
1603462654.25,-21.38
1603462654.265625,-23.9
1603462654.28125,-26.22
1603462654.296875,-28.57
1603462654.3125,-31.31
1603462654.328125,-34.73
1603462654.34375,-38.91
1603462654.359375,-43.61
1603462654.375,-48.21
1603462654.390625,-51.83
1603462654.40625,-53.46
1603462654.421875,-52.28
1603462654.4375,-47.81
1603462654.453125,-40.12
1603462654.46875,-29.86
1603462654.484375,-18.06
1603462654.5,-5.93
1603462654.515625,5.41
1603462654.53125,15.15
1603462654.546875,22.87
1603462654.5625,28.46
1603462654.578125,32.06
1603462654.59375,33.88
1603462654.609375,34.14
1603462654.625,33.1
1603462654.640625,31.02
1603462654.65625,28.28
1603462654.671875,25.36
1603462654.6875,22.78
1603462654.703125,20.97
1603462654.71875,20.17
1603462654.734375,20.42
1603462654.75,21.53
1603462654.765625,23.21
1603462654.78125,25.16
1603462654.796875,27.14
1603462654.8125,28.94
1603462654.828125,30.39
1603462654.84375,31.28
1603462654.859375,31.45
1603462654.875,30.78
1603462654.890625,29.27
1603462654.90625,27.08
1603462654.921875,24.46
1603462654.9375,21.69
1603462654.953125,19.04
1603462654.96875,16.65
1603462654.984375,14.56
1603462655.0,12.72
1603462655.015625,10.97
1603462655.03125,9.16
1603462655.046875,7.18
1603462655.0625,5.02
1603462655.078125,2.77
1603462655.09375,0.56
1603462655.109375,-1.45
1603462655.125,-3.21
1603462655.140625,-4.8
1603462655.15625,-6.37
1603462655.171875,-8.15
1603462655.1875,-10.29
1603462655.203125,-12.84
1603462655.21875,-15.71
1603462655.234375,-18.66
1603462655.25,-21.44
1603462655.265625,-23.87
1603462655.28125,-25.94
1603462655.296875,-27.89
1603462655.3125,-30.1
1603462655.328125,-32.99
1603462655.34375,-36.76
1603462655.359375,-41.2
1603462655.375,-45.67
1603462655.390625,-49.14
1603462655.40625,-50.51
1603462655.421875,-48.89
1603462655.4375,-43.9
1603462655.453125,-35.78
1603462655.46875,-25.33
1603462655.484375,-13.72
1603462655.5,-2.14
1603462655.515625,8.4
1603462655.53125,17.27
1603462655.546875,24.17
1603462655.5625,29.06
1603462655.578125,32.02
1603462655.59375,33.21
1603462655.609375,32.81
1603462655.625,31.08
1603462655.640625,28.39
1603462655.65625,25.25
1603462655.671875,22.17
1603462655.6875,19.59
1603462655.703125,17.8
1603462655.71875,16.92
1603462655.734375,16.95
1603462655.75,17.81
1603462655.765625,19.35
1603462655.78125,21.38
1603462655.796875,23.58
1603462655.8125,25.6
1603462655.828125,27.02
1603462655.84375,27.54
1603462655.859375,27.0
1603462655.875,25.48
1603462655.890625,23.23
1603462655.90625,20.6
1603462655.921875,17.89
1603462655.9375,15.32
1603462655.953125,12.96
1603462655.96875,10.81
1603462655.984375,8.8
1603462656.0,6.84
1603462656.015625,4.9
1603462656.03125,2.97
1603462656.046875,1.05
1603462656.0625,-0.81
1603462656.078125,-2.57
1603462656.09375,-4.17
1603462656.109375,-5.59
1603462656.125,-6.86
1603462656.140625,-8.09
1603462656.15625,-9.47
1603462656.171875,-11.14
1603462656.1875,-13.19
1603462656.203125,-15.52
1603462656.21875,-17.96
1603462656.234375,-20.24
1603462656.25,-22.21
1603462656.265625,-23.89
1603462656.28125,-25.49
1603462656.296875,-27.43
1603462656.3125,-30.13
1603462656.328125,-33.84
1603462656.34375,-38.41
1603462656.359375,-43.21
1603462656.375,-47.23
1603462656.390625,-49.32
1603462656.40625,-48.51
1603462656.421875,-44.38
1603462656.4375,-37.16
1603462656.453125,-27.69
1603462656.46875,-17.09
1603462656.484375,-6.47
1603462656.5,3.29
1603462656.515625,11.68
1603462656.53125,18.46
1603462656.546875,23.53
1603462656.5625,26.83
1603462656.578125,28.34
1603462656.59375,28.12
1603462656.609375,26.35
1603462656.625,23.46
1603462656.640625,19.97
1603462656.65625,16.52
1603462656.671875,13.64
1603462656.6875,11.71
1603462656.703125,10.89
1603462656.71875,11.15
1603462656.734375,12.31
1603462656.75,14.13
1603462656.765625,16.34
1603462656.78125,18.64
1603462656.796875,20.78
1603462656.8125,22.45
1603462656.828125,23.42
1603462656.84375,23.53
1603462656.859375,22.74
1603462656.875,21.17
1603462656.890625,19.0
1603462656.90625,16.51
1603462656.921875,13.91
1603462656.9375,11.39
1603462656.953125,9.02
1603462656.96875,6.86
1603462656.984375,4.86
1603462657.0,2.97
1603462657.015625,1.1
1603462657.03125,-0.86
1603462657.046875,-2.95
1603462657.0625,-5.18
1603462657.078125,-7.5
1603462657.09375,-9.81
1603462657.109375,-12.06
1603462657.125,-14.28
1603462657.140625,-16.56
1603462657.15625,-18.98
1603462657.171875,-21.52
1603462657.1875,-24.06
1603462657.203125,-26.4
1603462657.21875,-28.39
1603462657.234375,-30.03
1603462657.25,-31.58
1603462657.265625,-33.47
1603462657.28125,-36.13
1603462657.296875,-39.74
1603462657.3125,-44.14
1603462657.328125,-48.67
1603462657.34375,-52.37
1603462657.359375,-54.16
1603462657.375,-53.16
1603462657.390625,-48.95
1603462657.40625,-41.65
1603462657.421875,-31.89
1603462657.4375,-20.67
1603462657.453125,-9.11
1603462657.46875,1.78
1603462657.484375,11.22
1603462657.5,18.74
1603462657.515625,24.18
1603462657.53125,27.62
1603462657.546875,29.29
1603462657.5625,29.5
1603462657.578125,28.58
1603462657.59375,26.83
1603462657.609375,24.53
1603462657.625,22.0
1603462657.640625,19.57
1603462657.65625,17.61
1603462657.671875,16.41
1603462657.6875,16.17
1603462657.703125,16.88
1603462657.71875,18.35
1603462657.734375,20.24
1603462657.75,22.19
1603462657.765625,23.89
1603462657.78125,25.15
1603462657.796875,25.89
1603462657.8125,26.08
1603462657.828125,25.71
1603462657.84375,24.75
1603462657.859375,23.21
1603462657.875,21.17
1603462657.890625,18.81
1603462657.90625,16.3
1603462657.921875,13.81
1603462657.9375,11.44
1603462657.953125,9.19
1603462657.96875,7.03
1603462657.984375,4.94
1603462658.0,2.97
1603462658.015625,1.15
1603462658.03125,-0.46
1603462658.046875,-1.89
1603462658.0625,-3.27
1603462658.078125,-4.77
1603462658.09375,-6.59
1603462658.109375,-8.83
1603462658.125,-11.47
1603462658.140625,-14.34
1603462658.15625,-17.19
1603462658.171875,-19.8
1603462658.1875,-22.09
1603462658.203125,-24.12
1603462658.21875,-26.08
1603462658.234375,-28.25
1603462658.25,-30.86
1603462658.265625,-34.12
1603462658.28125,-38.1
1603462658.296875,-42.69
1603462658.3125,-47.44
1603462658.328125,-51.56
1603462658.34375,-54.0
1603462658.359375,-53.72
1603462658.375,-50.03
1603462658.390625,-42.83
1603462658.40625,-32.78
1603462658.421875,-21.02
1603462658.4375,-8.93
1603462658.453125,2.28
1603462658.46875,11.76
1603462658.484375,19.12
1603462658.5,24.39
1603462658.515625,27.78
1603462658.53125,29.66
1603462658.546875,30.3
1603462658.5625,29.95
1603462658.578125,28.75
1603462658.59375,26.9
1603462658.609375,24.62
1603462658.625,22.23
1603462658.640625,20.1
1603462658.65625,18.56
1603462658.671875,17.85
1603462658.6875,18.04
1603462658.703125,19.11
1603462658.71875,20.88
1603462658.734375,23.12
1603462658.75,25.52
1603462658.765625,27.71
1603462658.78125,29.34
1603462658.796875,30.11
1603462658.8125,29.86
1603462658.828125,28.64
1603462658.84375,26.68
1603462658.859375,24.28
1603462658.875,21.78
1603462658.890625,19.45
1603462658.90625,17.41
1603462658.921875,15.65
1603462658.9375,14.07
1603462658.953125,12.51
1603462658.96875,10.85
1603462658.984375,9.0
1603462659.0,6.96
1603462659.015625,4.83
1603462659.03125,2.71
1603462659.046875,0.7
1603462659.0625,-1.18
1603462659.078125,-2.99
1603462659.09375,-4.87
1603462659.109375,-6.94
1603462659.125,-9.26
1603462659.140625,-11.83
1603462659.15625,-14.53
1603462659.171875,-17.2
1603462659.1875,-19.71
1603462659.203125,-22.01
1603462659.21875,-24.19
1603462659.234375,-26.43
1603462659.25,-29.03
1603462659.265625,-32.25
1603462659.28125,-36.23
1603462659.296875,-40.77
1603462659.3125,-45.27
1603462659.328125,-48.78
1603462659.34375,-50.18
1603462659.359375,-48.6
1603462659.375,-43.67
1603462659.390625,-35.68
1603462659.40625,-25.48
1603462659.421875,-14.22
1603462659.4375,-2.99
1603462659.453125,7.34
1603462659.46875,16.18
1603462659.484375,23.24
1603462659.5,28.36
1603462659.515625,31.49
1603462659.53125,32.7
1603462659.546875,32.21
1603462659.5625,30.31
1603462659.578125,27.41
1603462659.59375,24.01
1603462659.609375,20.59
1603462659.625,17.66
1603462659.640625,15.55
1603462659.65625,14.46
1603462659.671875,14.37
1603462659.6875,15.08
1603462659.703125,16.37
1603462659.71875,18.05
1603462659.734375,19.97
1603462659.75,21.97
1603462659.765625,23.83
1603462659.78125,25.23
1603462659.796875,25.89
1603462659.8125,25.66
1603462659.828125,24.57
1603462659.84375,22.85
1603462659.859375,20.8
1603462659.875,18.68
1603462659.890625,16.68
1603462659.90625,14.83
1603462659.921875,13.11
1603462659.9375,11.46
1603462659.953125,9.78
1603462659.96875,7.98
1603462659.984375,5.99
1603462660.0,3.86
1603462660.015625,1.7
1603462660.03125,-0.31
1603462660.046875,-2.06
1603462660.0625,-3.52
1603462660.078125,-4.81
1603462660.09375,-6.14
1603462660.109375,-7.69
1603462660.125,-9.59
1603462660.140625,-11.84
1603462660.15625,-14.36
1603462660.171875,-17.02
1603462660.1875,-19.65
1603462660.203125,-22.15
1603462660.21875,-24.49
1603462660.234375,-26.78
1603462660.25,-29.23
1603462660.265625,-32.13
1603462660.28125,-35.65
1603462660.296875,-39.73
1603462660.3125,-43.95
1603462660.328125,-47.58
1603462660.34375,-49.75
1603462660.359375,-49.62
1603462660.375,-46.63
1603462660.390625,-40.67
1603462660.40625,-32.11
1603462660.421875,-21.73
1603462660.4375,-10.58
1603462660.453125,0.25
1603462660.46875,9.81
1603462660.484375,17.43
1603462660.5,22.8
1603462660.515625,25.92
1603462660.53125,26.99
1603462660.546875,26.35
1603462660.5625,24.4
1603462660.578125,21.57
1603462660.59375,18.36
1603462660.609375,15.26
1603462660.625,12.75
1603462660.640625,11.17
1603462660.65625,10.72
1603462660.671875,11.39
1603462660.6875,13.0
1603462660.703125,15.21
1603462660.71875,17.63
1603462660.734375,19.88
1603462660.75,21.7
1603462660.765625,22.88
1603462660.78125,23.36
1603462660.796875,23.11
1603462660.8125,22.21
1603462660.828125,20.78
1603462660.84375,19.0
1603462660.859375,17.05
1603462660.875,15.11
1603462660.890625,13.29
1603462660.90625,11.59
1603462660.921875,9.89
1603462660.9375,8.09
1603462660.953125,6.09
1603462660.96875,3.86
1603462660.984375,1.44
1603462661.0,-1.05
1603462661.015625,-3.53
1603462661.03125,-5.91
1603462661.046875,-8.14
1603462661.0625,-10.24
1603462661.078125,-12.31
1603462661.09375,-14.43
1603462661.109375,-16.68
1603462661.125,-19.04
1603462661.140625,-21.45
1603462661.15625,-23.8
1603462661.171875,-26.04
1603462661.1875,-28.21
1603462661.203125,-30.44
1603462661.21875,-32.94
1603462661.234375,-35.92
1603462661.25,-39.53
1603462661.265625,-43.79
1603462661.28125,-48.44
1603462661.296875,-52.9
1603462661.3125,-56.26
1603462661.328125,-57.48
1603462661.34375,-55.71
1603462661.359375,-50.58
1603462661.375,-42.32
1603462661.390625,-31.8
1603462661.40625,-20.17
1603462661.421875,-8.6
1603462661.4375,2.01
1603462661.453125,11.07
1603462661.46875,18.31
1603462661.484375,23.63
1603462661.5,27.03
1603462661.515625,28.64
1603462661.53125,28.68
1603462661.546875,27.53
1603462661.5625,25.65
1603462661.578125,23.49
1603462661.59375,21.4
1603462661.609375,19.6
1603462661.625,18.19
1603462661.640625,17.21
1603462661.65625,16.74
1603462661.671875,16.87
1603462661.6875,17.7
1603462661.703125,19.21
1603462661.71875,21.2
1603462661.734375,23.25
1603462661.75,24.88
1603462661.765625,25.63
1603462661.78125,25.28
1603462661.796875,23.89
1603462661.8125,21.68
1603462661.828125,18.98
1603462661.84375,16.03
1603462661.859375,13.02
1603462661.875,10.02
1603462661.890625,7.08
1603462661.90625,4.23
1603462661.921875,1.46
1603462661.9375,-1.29
1603462661.953125,-4.11
1603462661.96875,-7.04
1603462661.984375,-10.11
1603462662.0,-13.24
1603462662.015625,-16.38
1603462662.03125,-19.54
1603462662.046875,-22.79
1603462662.0625,-26.22
1603462662.078125,-29.84
1603462662.09375,-33.53
1603462662.109375,-37.04
1603462662.125,-40.06
1603462662.140625,-42.37
1603462662.15625,-43.86
1603462662.171875,-44.56
1603462662.1875,-44.61
1603462662.203125,-44.29
1603462662.21875,-43.93
1603462662.234375,-43.86
1603462662.25,-44.25
1603462662.265625,-44.98
1603462662.28125,-45.52
1603462662.296875,-45.04
1603462662.3125,-42.58
1603462662.328125,-37.41
1603462662.34375,-29.29
1603462662.359375,-18.61
1603462662.375,-6.26
1603462662.390625,6.55
1603462662.40625,18.64
1603462662.421875,29.12
1603462662.4375,37.51
1603462662.453125,43.74
1603462662.46875,47.98
1603462662.484375,50.47
1603462662.5,51.41
1603462662.515625,50.96
1603462662.53125,49.3
1603462662.546875,46.69
1603462662.5625,43.53
1603462662.578125,40.24
1603462662.59375,37.19
1603462662.609375,34.66
1603462662.625,32.78
1603462662.640625,31.59
1603462662.65625,31.12
1603462662.671875,31.36
1603462662.6875,32.23
1603462662.703125,33.56
1603462662.71875,35.08
1603462662.734375,36.42
1603462662.75,37.26
1603462662.765625,37.3
1603462662.78125,36.4
1603462662.796875,34.55
1603462662.8125,31.92
1603462662.828125,28.84
1603462662.84375,25.69
1603462662.859375,22.83
1603462662.875,20.41
1603462662.890625,18.38
1603462662.90625,16.54
1603462662.921875,14.61
1603462662.9375,12.41
1603462662.953125,9.94
1603462662.96875,7.3
1603462662.984375,4.71
1603462663.0,2.32
1603462663.015625,0.21
1603462663.03125,-1.65
1603462663.046875,-3.38
1603462663.0625,-5.12
1603462663.078125,-7.0
1603462663.09375,-9.09
1603462663.109375,-11.46
1603462663.125,-14.11
1603462663.140625,-16.97
1603462663.15625,-19.93
1603462663.171875,-22.82
1603462663.1875,-25.52
1603462663.203125,-28.01
1603462663.21875,-30.45
1603462663.234375,-33.15
1603462663.25,-36.44
1603462663.265625,-40.44
1603462663.28125,-44.88
1603462663.296875,-49.04
1603462663.3125,-51.85
1603462663.328125,-52.25
1603462663.34375,-49.46
1603462663.359375,-43.34
1603462663.375,-34.35
1603462663.390625,-23.46
1603462663.40625,-11.85
1603462663.421875,-0.65
1603462663.4375,9.29
1603462663.453125,17.44
1603462663.46875,23.6
1603462663.484375,27.79
1603462663.5,30.18
1603462663.515625,31.05
1603462663.53125,30.74
1603462663.546875,29.59
1603462663.5625,27.94
1603462663.578125,26.1
1603462663.59375,24.35
1603462663.609375,22.94
1603462663.625,22.04
1603462663.640625,21.7
1603462663.65625,21.87
1603462663.671875,22.47
1603462663.6875,23.39
1603462663.703125,24.56
1603462663.71875,25.94
1603462663.734375,27.4
1603462663.75,28.71
1603462663.765625,29.57
1603462663.78125,29.68
1603462663.796875,28.87
1603462663.8125,27.18
1603462663.828125,24.83
1603462663.84375,22.18
1603462663.859375,19.53
1603462663.875,17.1
1603462663.890625,15.01
1603462663.90625,13.22
1603462663.921875,11.62
1603462663.9375,10.03
1603462663.953125,8.3
1603462663.96875,6.38
1603462663.984375,4.34
1603462664.0,2.42
1603462664.015625,0.83
1603462664.03125,-0.31
1603462664.046875,-1.15
1603462664.0625,-1.97
1603462664.078125,-3.15
1603462664.09375,-4.93
1603462664.109375,-7.31
1603462664.125,-10.1
1603462664.140625,-12.96
1603462664.15625,-15.62
1603462664.171875,-17.9
1603462664.1875,-19.78
1603462664.203125,-21.38
1603462664.21875,-22.93
1603462664.234375,-24.71
1603462664.25,-27.0
1603462664.265625,-30.05
1603462664.28125,-33.91
1603462664.296875,-38.36
1603462664.3125,-42.78
1603462664.328125,-46.28
1603462664.34375,-47.83
1603462664.359375,-46.65
1603462664.375,-42.41
1603462664.390625,-35.36
1603462664.40625,-26.3
1603462664.421875,-16.27
1603462664.4375,-6.31
1603462664.453125,2.76
1603462664.46875,10.44
1603462664.484375,16.46
1603462664.5,20.76
1603462664.515625,23.33
1603462664.53125,24.23
1603462664.546875,23.64
1603462664.5625,21.84
1603462664.578125,19.26
1603462664.59375,16.41
1603462664.609375,13.78
1603462664.625,11.75
1603462664.640625,10.54
1603462664.65625,10.19
1603462664.671875,10.69
1603462664.6875,11.95
1603462664.703125,13.9
1603462664.71875,16.33
1603462664.734375,18.97
1603462664.75,21.39
1603462664.765625,23.17
1603462664.78125,24.0
1603462664.796875,23.79
1603462664.8125,22.7
1603462664.828125,21.02
1603462664.84375,19.04
1603462664.859375,16.94
1603462664.875,14.8
1603462664.890625,12.63
1603462664.90625,10.46
1603462664.921875,8.34
1603462664.9375,6.34
1603462664.953125,4.51
1603462664.96875,2.81
1603462664.984375,1.16
1603462665.0,-0.51
1603462665.015625,-2.24
1603462665.03125,-4.03
1603462665.046875,-5.84
1603462665.0625,-7.65
1603462665.078125,-9.48
1603462665.09375,-11.31
1603462665.109375,-13.17
1603462665.125,-15.06
1603462665.140625,-16.97
1603462665.15625,-18.86
1603462665.171875,-20.75
1603462665.1875,-22.71
1603462665.203125,-24.86
1603462665.21875,-27.42
1603462665.234375,-30.53
1603462665.25,-34.19
1603462665.265625,-38.12
1603462665.28125,-41.71
1603462665.296875,-44.1
1603462665.3125,-44.41
1603462665.328125,-42.02
1603462665.34375,-36.76
1603462665.359375,-29.04
1603462665.375,-19.68
1603462665.390625,-9.74
1603462665.40625,-0.21
1603462665.421875,8.14
1603462665.4375,14.86
1603462665.453125,19.75
1603462665.46875,22.84
1603462665.484375,24.24
1603462665.5,24.18
1603462665.515625,22.91
1603462665.53125,20.76
1603462665.546875,18.08
1603462665.5625,15.3
1603462665.578125,12.82
1603462665.59375,11.02
1603462665.609375,10.16
1603462665.625,10.32
1603462665.640625,11.41
1603462665.65625,13.18
1603462665.671875,15.31
1603462665.6875,17.49
1603462665.703125,19.44
1603462665.71875,20.94
1603462665.734375,21.79
1603462665.75,21.83
1603462665.765625,20.97
1603462665.78125,19.3
1603462665.796875,17.01
1603462665.8125,14.45
1603462665.828125,11.98
1603462665.84375,9.87
1603462665.859375,8.18
1603462665.875,6.79
1603462665.890625,5.49
1603462665.90625,4.03
1603462665.921875,2.28
1603462665.9375,0.2
1603462665.953125,-2.14
1603462665.96875,-4.63
1603462665.984375,-7.15
1603462666.0,-9.59
1603462666.015625,-11.88
1603462666.03125,-14.02
1603462666.046875,-16.08
1603462666.0625,-18.14
1603462666.078125,-20.29
1603462666.09375,-22.56
1603462666.109375,-24.87
1603462666.125,-27.12
1603462666.140625,-29.25
1603462666.15625,-31.3
1603462666.171875,-33.51
1603462666.1875,-36.19
1603462666.203125,-39.64
1603462666.21875,-43.89
1603462666.234375,-48.61
1603462666.25,-53.06
1603462666.265625,-56.23
1603462666.28125,-57.12
1603462666.296875,-55.01
1603462666.3125,-49.68
1603462666.328125,-41.5
1603462666.34375,-31.29
1603462666.359375,-20.14
1603462666.375,-9.12
1603462666.390625,0.9
1603462666.40625,9.36
1603462666.421875,16.03
1603462666.4375,20.91
1603462666.453125,24.11
1603462666.46875,25.85
1603462666.484375,26.32
1603462666.5,25.78
1603462666.515625,24.5
1603462666.53125,22.83
1603462666.546875,21.1
1603462666.5625,19.6
1603462666.578125,18.51
1603462666.59375,17.94
1603462666.609375,17.89
1603462666.625,18.34
1603462666.640625,19.26
1603462666.65625,20.55
1603462666.671875,22.09
1603462666.6875,23.65
1603462666.703125,25.0
1603462666.71875,25.9
1603462666.734375,26.2
1603462666.75,25.86
1603462666.765625,24.9
1603462666.78125,23.42
1603462666.796875,21.52
1603462666.8125,19.34
1603462666.828125,16.99
1603462666.84375,14.57
1603462666.859375,12.17
1603462666.875,9.81
1603462666.890625,7.51
1603462666.90625,5.22
1603462666.921875,2.93
1603462666.9375,0.65
1603462666.953125,-1.62
1603462666.96875,-3.8
1603462666.984375,-5.88
1603462667.0,-7.85
1603462667.015625,-9.78
1603462667.03125,-11.78
1603462667.046875,-13.96
1603462667.0625,-16.35
1603462667.078125,-18.9
1603462667.09375,-21.45
1603462667.109375,-23.87
1603462667.125,-26.12
1603462667.140625,-28.31
1603462667.15625,-30.78
1603462667.171875,-33.89
1603462667.1875,-37.83
1603462667.203125,-42.46
1603462667.21875,-47.19
1603462667.234375,-51.08
1603462667.25,-53.09
1603462667.265625,-52.36
1603462667.28125,-48.48
1603462667.296875,-41.59
1603462667.3125,-32.28
1603462667.328125,-21.49
1603462667.34375,-10.28
1603462667.359375,0.36
1603462667.375,9.66
1603462667.390625,17.13
1603462667.40625,22.58
1603462667.421875,26.1
1603462667.4375,27.97
1603462667.453125,28.57
1603462667.46875,28.27
1603462667.484375,27.4
1603462667.5,26.21
1603462667.515625,24.88
1603462667.53125,23.61
1603462667.546875,22.56
1603462667.5625,21.89
1603462667.578125,21.68
1603462667.59375,21.99
1603462667.609375,22.79
1603462667.625,24.0
1603462667.640625,25.47
1603462667.65625,27.0
1603462667.671875,28.35
1603462667.6875,29.22
1603462667.703125,29.41
1603462667.71875,28.81
1603462667.734375,27.51
1603462667.75,25.72
1603462667.765625,23.72
1603462667.78125,21.74
1603462667.796875,19.91
1603462667.8125,18.2
1603462667.828125,16.52
1603462667.84375,14.74
1603462667.859375,12.79
1603462667.875,10.7
1603462667.890625,8.49
1603462667.90625,6.23
1603462667.921875,3.98
1603462667.9375,1.82
1603462667.953125,-0.18
1603462667.96875,-1.99
1603462667.984375,-3.64
1603462668.0,-5.24
1603462668.015625,-6.96
1603462668.03125,-8.94
1603462668.046875,-11.26
1603462668.0625,-13.9
1603462668.078125,-16.73
1603462668.09375,-19.58
1603462668.109375,-22.3
1603462668.125,-24.84
1603462668.140625,-27.22
1603462668.15625,-29.64
1603462668.171875,-32.38
1603462668.1875,-35.71
1603462668.203125,-39.72
1603462668.21875,-44.15
1603462668.234375,-48.33
1603462668.25,-51.25
1603462668.265625,-51.89
1603462668.28125,-49.49
1603462668.296875,-43.87
1603462668.3125,-35.46
1603462668.328125,-25.21
1603462668.34375,-14.26
1603462668.359375,-3.69
1603462668.375,5.69
1603462668.390625,13.41
1603462668.40625,19.31
1603462668.421875,23.44
1603462668.4375,25.96
1603462668.453125,27.11
1603462668.46875,27.22
1603462668.484375,26.59
1603462668.5,25.52
1603462668.515625,24.25
1603462668.53125,22.94
1603462668.546875,21.72
1603462668.5625,20.73
1603462668.578125,20.12
1603462668.59375,20.06
1603462668.609375,20.66
1603462668.625,21.86
1603462668.640625,23.49
1603462668.65625,25.27
1603462668.671875,26.9
1603462668.6875,28.15
1603462668.703125,28.84
1603462668.71875,28.89
1603462668.734375,28.27
1603462668.75,27.01
1603462668.765625,25.23
1603462668.78125,23.17
1603462668.796875,21.06
1603462668.8125,19.11
1603462668.828125,17.37
1603462668.84375,15.81
1603462668.859375,14.3
1603462668.875,12.72
1603462668.890625,11.05
1603462668.90625,9.29
1603462668.921875,7.48
1603462668.9375,5.62
1603462668.953125,3.69
1603462668.96875,1.7
1603462668.984375,-0.31
1603462669.0,-2.25
1603462669.015625,-4.04
1603462669.03125,-5.64
1603462669.046875,-7.15
1603462669.0625,-8.71
1603462669.078125,-10.54
1603462669.09375,-12.75
1603462669.109375,-15.35
1603462669.125,-18.21
1603462669.140625,-21.07
1603462669.15625,-23.69
1603462669.171875,-25.94
1603462669.1875,-27.84
1603462669.203125,-29.64
1603462669.21875,-31.67
1603462669.234375,-34.22
1603462669.25,-37.46
1603462669.265625,-41.35
1603462669.28125,-45.57
1603462669.296875,-49.53
1603462669.3125,-52.47
1603462669.328125,-53.56
1603462669.34375,-52.06
1603462669.359375,-47.58
1603462669.375,-40.21
1603462669.390625,-30.53
1603462669.40625,-19.52
1603462669.421875,-8.31
1603462669.4375,2.08
1603462669.453125,10.9
1603462669.46875,17.73
1603462669.484375,22.5
1603462669.5,25.34
1603462669.515625,26.54
1603462669.53125,26.44
1603462669.546875,25.38
1603462669.5625,23.67
1603462669.578125,21.6
1603462669.59375,19.45
1603462669.609375,17.53
1603462669.625,16.14
1603462669.640625,15.47
1603462669.65625,15.62
1603462669.671875,16.52
1603462669.6875,17.98
1603462669.703125,19.8
1603462669.71875,21.73
1603462669.734375,23.59
1603462669.75,25.14
1603462669.765625,26.17
1603462669.78125,26.52
1603462669.796875,26.14
1603462669.8125,25.14
1603462669.828125,23.73
1603462669.84375,22.19
1603462669.859375,20.72
1603462669.875,19.36
1603462669.890625,18.04
1603462669.90625,16.66
1603462669.921875,15.12
1603462669.9375,13.43
1603462669.953125,11.65
1603462669.96875,9.87
1603462669.984375,8.15
1603462670.0,6.5
1603462670.015625,4.86
1603462670.03125,3.17
1603462670.046875,1.4
1603462670.0625,-0.41
1603462670.078125,-2.2
1603462670.09375,-3.9
1603462670.109375,-5.54
1603462670.125,-7.24
1603462670.140625,-9.12
1603462670.15625,-11.27
1603462670.171875,-13.65
1603462670.1875,-16.16
1603462670.203125,-18.63
1603462670.21875,-20.96
1603462670.234375,-23.12
1603462670.25,-25.21
1603462670.265625,-27.34
1603462670.28125,-29.68
1603462670.296875,-32.4
1603462670.3125,-35.65
1603462670.328125,-39.52
1603462670.34375,-43.89
1603462670.359375,-48.37
1603462670.375,-52.2
1603462670.390625,-54.41
1603462670.40625,-54.06
1603462670.421875,-50.58
1603462670.4375,-43.98
1603462670.453125,-34.88
1603462670.46875,-24.35
1603462670.484375,-13.56
1603462670.5,-3.53
1603462670.515625,5.1
1603462670.53125,12.05
1603462670.546875,17.29
1603462670.5625,20.87
1603462670.578125,22.87
1603462670.59375,23.38
1603462670.609375,22.56
1603462670.625,20.73
1603462670.640625,18.31
1603462670.65625,15.81
1603462670.671875,13.65
1603462670.6875,12.15
1603462670.703125,11.41
1603462670.71875,11.44
1603462670.734375,12.15
1603462670.75,13.49
1603462670.765625,15.4
1603462670.78125,17.79
1603462670.796875,20.46
1603462670.8125,23.09
1603462670.828125,25.25
1603462670.84375,26.56
1603462670.859375,26.76
1603462670.875,25.85
1603462670.890625,24.07
1603462670.90625,21.8
1603462670.921875,19.42
1603462670.9375,17.17
1603462670.953125,15.12
1603462670.96875,13.23
1603462670.984375,11.4
1603462671.0,9.53
1603462671.015625,7.6
1603462671.03125,5.61
1603462671.046875,3.57
1603462671.0625,1.49
1603462671.078125,-0.61
1603462671.09375,-2.67
1603462671.109375,-4.64
1603462671.125,-6.51
1603462671.140625,-8.32
1603462671.15625,-10.22
1603462671.171875,-12.34
1603462671.1875,-14.75
1603462671.203125,-17.36
1603462671.21875,-19.95
1603462671.234375,-22.31
1603462671.25,-24.32
1603462671.265625,-26.03
1603462671.28125,-27.71
1603462671.296875,-29.68
1603462671.3125,-32.27
1603462671.328125,-35.69
1603462671.34375,-39.92
1603462671.359375,-44.68
1603462671.375,-49.4
1603462671.390625,-53.24
1603462671.40625,-55.27
1603462671.421875,-54.67
1603462671.4375,-50.96
1603462671.453125,-44.15
1603462671.46875,-34.78
1603462671.484375,-23.76
1603462671.5,-12.17
1603462671.515625,-1.02
1603462671.53125,8.88
1603462671.546875,17.0
1603462671.5625,23.07
1603462671.578125,27.09
1603462671.59375,29.22
1603462671.609375,29.73
1603462671.625,28.91
1603462671.640625,27.05
1603462671.65625,24.46
1603462671.671875,21.48
1603462671.6875,18.55
1603462671.703125,16.1
1603462671.71875,14.53
1603462671.734375,14.06
1603462671.75,14.71
1603462671.765625,16.28
1603462671.78125,18.45
1603462671.796875,20.88
1603462671.8125,23.26
1603462671.828125,25.32
1603462671.84375,26.86
1603462671.859375,27.73
1603462671.875,27.82
1603462671.890625,27.08
1603462671.90625,25.56
1603462671.921875,23.39
1603462671.9375,20.8
1603462671.953125,18.07
1603462671.96875,15.42
1603462671.984375,12.96
1603462672.0,10.66
1603462672.015625,8.38
1603462672.03125,5.99
1603462672.046875,3.48
1603462672.0625,0.98
1603462672.078125,-1.36
1603462672.09375,-3.41
1603462672.109375,-5.22
1603462672.125,-6.96
1603462672.140625,-8.85
1603462672.15625,-11.01
1603462672.171875,-13.42
1603462672.1875,-15.97
1603462672.203125,-18.58
1603462672.21875,-21.19
1603462672.234375,-23.83
1603462672.25,-26.53
1603462672.265625,-29.34
1603462672.28125,-32.32
1603462672.296875,-35.57
1603462672.3125,-39.26
1603462672.328125,-43.54
1603462672.34375,-48.39
1603462672.359375,-53.53
1603462672.375,-58.32
1603462672.390625,-61.86
1603462672.40625,-63.13
1603462672.421875,-61.31
1603462672.4375,-55.99
1603462672.453125,-47.36
1603462672.46875,-36.16
1603462672.484375,-23.55
1603462672.5,-10.78
1603462672.515625,1.11
1603462672.53125,11.43
1603462672.546875,19.84
1603462672.5625,26.26
1603462672.578125,30.73
1603462672.59375,33.34
1603462672.609375,34.27
1603462672.625,33.82
1603462672.640625,32.37
1603462672.65625,30.33
1603462672.671875,28.08
1603462672.6875,25.94
1603462672.703125,24.14
1603462672.71875,22.9
1603462672.734375,22.4
1603462672.75,22.76
1603462672.765625,23.99
1603462672.78125,25.95
1603462672.796875,28.38
1603462672.8125,30.91
1603462672.828125,33.19
1603462672.84375,34.9
1603462672.859375,35.76
1603462672.875,35.58
1603462672.890625,34.32
1603462672.90625,32.05
1603462672.921875,29.06
1603462672.9375,25.72
1603462672.953125,22.43
1603462672.96875,19.49
1603462672.984375,17.01
1603462673.0,14.88
1603462673.015625,12.87
1603462673.03125,10.73
1603462673.046875,8.34
1603462673.0625,5.72
1603462673.078125,3.05
1603462673.09375,0.55
1603462673.109375,-1.66
1603462673.125,-3.63
1603462673.140625,-5.55
1603462673.15625,-7.63
1603462673.171875,-10.03
1603462673.1875,-12.76
1603462673.203125,-15.68
1603462673.21875,-18.61
1603462673.234375,-21.42
1603462673.25,-24.07
1603462673.265625,-26.66
1603462673.28125,-29.37
1603462673.296875,-32.39
1603462673.3125,-35.92
1603462673.328125,-40.05
1603462673.34375,-44.69
1603462673.359375,-49.4
1603462673.375,-53.47
1603462673.390625,-55.93
1603462673.40625,-55.82
1603462673.421875,-52.52
1603462673.4375,-45.86
1603462673.453125,-36.3
1603462673.46875,-24.69
1603462673.484375,-12.14
1603462673.5,0.24
1603462673.515625,11.53
1603462673.53125,21.07
1603462673.546875,28.5
1603462673.5625,33.69
1603462673.578125,36.76
1603462673.59375,37.96
1603462673.609375,37.58
1603462673.625,35.96
1603462673.640625,33.44
1603462673.65625,30.43
1603462673.671875,27.37
1603462673.6875,24.75
1603462673.703125,22.93
1603462673.71875,22.11
1603462673.734375,22.33
1603462673.75,23.42
1603462673.765625,25.17
1603462673.78125,27.37
1603462673.796875,29.76
1603462673.8125,32.02
1603462673.828125,33.8
1603462673.84375,34.72
1603462673.859375,34.5
1603462673.875,33.11
1603462673.890625,30.76
1603462673.90625,27.87
1603462673.921875,24.89
1603462673.9375,22.16
1603462673.953125,19.78
1603462673.96875,17.66
1603462673.984375,15.58
1603462674.0,13.31
1603462674.015625,10.78
1603462674.03125,8.05
1603462674.046875,5.27
1603462674.0625,2.61
1603462674.078125,0.18
1603462674.09375,-2.01
1603462674.109375,-4.04
1603462674.125,-6.05
1603462674.140625,-8.18
1603462674.15625,-10.55
1603462674.171875,-13.17
1603462674.1875,-15.97
1603462674.203125,-18.8
1603462674.21875,-21.47
1603462674.234375,-23.84
1603462674.25,-25.9
1603462674.265625,-27.87
1603462674.28125,-30.1
1603462674.296875,-33.02
1603462674.3125,-36.91
1603462674.328125,-41.74
1603462674.34375,-47.05
1603462674.359375,-51.96
1603462674.375,-55.33
1603462674.390625,-56.06
1603462674.40625,-53.37
1603462674.421875,-47.04
1603462674.4375,-37.49
1603462674.453125,-25.69
1603462674.46875,-12.88
1603462674.484375,-0.31
1603462674.5,10.97
1603462674.515625,20.29
1603462674.53125,27.35
1603462674.546875,32.14
1603462674.5625,34.84
1603462674.578125,35.74
1603462674.59375,35.1
1603462674.609375,33.22
1603462674.625,30.46
1603462674.640625,27.29
1603462674.65625,24.24
1603462674.671875,21.84
1603462674.6875,20.43
1603462674.703125,20.12
1603462674.71875,20.78
1603462674.734375,22.09
1603462674.75,23.79
1603462674.765625,25.65
1603462674.78125,27.55
1603462674.796875,29.35
1603462674.8125,30.83
1603462674.828125,31.75
1603462674.84375,31.86
1603462674.859375,31.07
1603462674.875,29.45
1603462674.890625,27.21
1603462674.90625,24.58
1603462674.921875,21.74
1603462674.9375,18.83
1603462674.953125,15.92
1603462674.96875,13.13
1603462674.984375,10.55
1603462675.0,8.25
1603462675.015625,6.2
1603462675.03125,4.31
1603462675.046875,2.45
1603462675.0625,0.54
1603462675.078125,-1.43
1603462675.09375,-3.41
1603462675.109375,-5.39
1603462675.125,-7.42
1603462675.140625,-9.6
1603462675.15625,-12.0
1603462675.171875,-14.62
1603462675.1875,-17.33
1603462675.203125,-19.92
1603462675.21875,-22.27
1603462675.234375,-24.38
1603462675.25,-26.46
1603462675.265625,-28.9
1603462675.28125,-32.05
1603462675.296875,-36.1
1603462675.3125,-40.92
1603462675.328125,-45.93
1603462675.34375,-50.25
1603462675.359375,-52.81
1603462675.375,-52.66
1603462675.390625,-49.24
1603462675.40625,-42.53
1603462675.421875,-33.06
1603462675.4375,-21.84
1603462675.453125,-10.02
1603462675.46875,1.31
1603462675.484375,11.33
1603462675.5,19.52
1603462675.515625,25.64
1603462675.53125,29.62
1603462675.546875,31.51
1603462675.5625,31.43
1603462675.578125,29.69
1603462675.59375,26.73
1603462675.609375,23.14
1603462675.625,19.55
1603462675.640625,16.51
1603462675.65625,14.39
1603462675.671875,13.33
1603462675.6875,13.32
1603462675.703125,14.25
1603462675.71875,15.95
1603462675.734375,18.22
1603462675.75,20.81
1603462675.765625,23.4
1603462675.78125,25.62
1603462675.796875,27.13
1603462675.8125,27.65
1603462675.828125,27.09
1603462675.84375,25.52
1603462675.859375,23.13
1603462675.875,20.23
1603462675.890625,17.13
1603462675.90625,14.08
1603462675.921875,11.23
1603462675.9375,8.66
1603462675.953125,6.35
1603462675.96875,4.3
1603462675.984375,2.44
1603462676.0,0.72
1603462676.015625,-0.96
1603462676.03125,-2.71
1603462676.046875,-4.69
1603462676.0625,-7.0
1603462676.078125,-9.66
1603462676.09375,-12.59
1603462676.109375,-15.56
1603462676.125,-18.37
1603462676.140625,-20.86
1603462676.15625,-22.98
1603462676.171875,-24.86
1603462676.1875,-26.72
1603462676.203125,-28.86
1603462676.21875,-31.59
1603462676.234375,-35.1
1603462676.25,-39.44
1603462676.265625,-44.32
1603462676.28125,-49.09
1603462676.296875,-52.83
1603462676.3125,-54.47
1603462676.328125,-53.16
1603462676.34375,-48.44
1603462676.359375,-40.49
1603462676.375,-30.05
1603462676.390625,-18.25
1603462676.40625,-6.34
1603462676.421875,4.59
1603462676.4375,13.74
1603462676.453125,20.72
1603462676.46875,25.47
1603462676.484375,28.23
1603462676.5,29.34
1603462676.515625,29.16
1603462676.53125,28.0
1603462676.546875,26.14
1603462676.5625,23.83
1603462676.578125,21.35
1603462676.59375,19.03
1603462676.609375,17.21
1603462676.625,16.15
1603462676.640625,16.01
1603462676.65625,16.77
1603462676.671875,18.27
1603462676.6875,20.27
1603462676.703125,22.45
1603462676.71875,24.47
1603462676.734375,26.02
1603462676.75,26.84
1603462676.765625,26.78
1603462676.78125,25.83
1603462676.796875,24.11
1603462676.8125,21.81
1603462676.828125,19.19
1603462676.84375,16.45
1603462676.859375,13.71
1603462676.875,11.02
1603462676.890625,8.42
1603462676.90625,5.92
1603462676.921875,3.59
1603462676.9375,1.45
1603462676.953125,-0.54
1603462676.96875,-2.49
1603462676.984375,-4.56
1603462677.0,-6.85
1603462677.015625,-9.39
1603462677.03125,-12.11
1603462677.046875,-14.85
1603462677.0625,-17.49
1603462677.078125,-19.93
1603462677.09375,-22.15
1603462677.109375,-24.21
1603462677.125,-26.24
1603462677.140625,-28.46
1603462677.15625,-31.13
1603462677.171875,-34.48
1603462677.1875,-38.58
1603462677.203125,-43.16
1603462677.21875,-47.59
1603462677.234375,-50.93
1603462677.25,-52.16
1603462677.265625,-50.52
1603462677.28125,-45.72
1603462677.296875,-38.01
1603462677.3125,-28.13
1603462677.328125,-17.1
1603462677.34375,-5.95
1603462677.359375,4.43
1603462677.375,13.38
1603462677.390625,20.5
1603462677.40625,25.6
1603462677.421875,28.71
1603462677.4375,30.0
1603462677.453125,29.83
1603462677.46875,28.6
1603462677.484375,26.77
1603462677.5,24.73
1603462677.515625,22.81
1603462677.53125,21.24
1603462677.546875,20.21
1603462677.5625,19.79
1603462677.578125,20.06
1603462677.59375,20.98
1603462677.609375,22.48
1603462677.625,24.35
1603462677.640625,26.35
1603462677.65625,28.16
1603462677.671875,29.45
1603462677.6875,29.95
1603462677.703125,29.52
1603462677.71875,28.16
1603462677.734375,26.06
1603462677.75,23.5
1603462677.765625,20.76
1603462677.78125,18.0
1603462677.796875,15.24
1603462677.8125,12.38
1603462677.828125,9.29
1603462677.84375,6.01
1603462677.859375,2.7
1603462677.875,-0.37
1603462677.890625,-2.97
1603462677.90625,-5.02
1603462677.921875,-6.64
1603462677.9375,-8.11
1603462677.953125,-9.71
1603462677.96875,-11.65
1603462677.984375,-13.94
1603462678.0,-16.45
1603462678.015625,-18.97
1603462678.03125,-21.29
1603462678.046875,-23.32
1603462678.0625,-25.1
1603462678.078125,-26.81
1603462678.09375,-28.76
1603462678.109375,-31.25
1603462678.125,-34.5
1603462678.140625,-38.52
1603462678.15625,-42.97
1603462678.171875,-47.15
1603462678.1875,-50.1
1603462678.203125,-50.78
1603462678.21875,-48.35
1603462678.234375,-42.5
1603462678.25,-33.54
1603462678.265625,-22.4
1603462678.28125,-10.36
1603462678.296875,1.3
1603462678.3125,11.52
1603462678.328125,19.65
1603462678.34375,25.48
1603462678.359375,29.12
1603462678.375,30.88
1603462678.390625,31.18
1603462678.40625,30.42
1603462678.421875,29.01
1603462678.4375,27.26
1603462678.453125,25.41
1603462678.46875,23.65
1603462678.484375,22.13
1603462678.5,21.02
1603462678.515625,20.49
1603462678.53125,20.66
1603462678.546875,21.54
1603462678.5625,23.02
1603462678.578125,24.83
1603462678.59375,26.66
1603462678.609375,28.21
1603462678.625,29.24
1603462678.640625,29.59
1603462678.65625,29.17
1603462678.671875,27.96
1603462678.6875,26.01
1603462678.703125,23.49
1603462678.71875,20.68
1603462678.734375,17.92
1603462678.75,15.46
1603462678.765625,13.42
1603462678.78125,11.7
1603462678.796875,10.07
1603462678.8125,8.3
1603462678.828125,6.24
1603462678.84375,3.92
1603462678.859375,1.46
1603462678.875,-0.99
1603462678.890625,-3.33
1603462678.90625,-5.58
1603462678.921875,-7.79
1603462678.9375,-10.04
1603462678.953125,-12.38
1603462678.96875,-14.77
1603462678.984375,-17.13
1603462679.0,-19.38
1603462679.015625,-21.49
1603462679.03125,-23.49
1603462679.046875,-25.52
1603462679.0625,-27.78
1603462679.078125,-30.51
1603462679.09375,-33.88
1603462679.109375,-37.9
1603462679.125,-42.31
1603462679.140625,-46.48
1603462679.15625,-49.56
1603462679.171875,-50.55
1603462679.1875,-48.71
1603462679.203125,-43.71
1603462679.21875,-35.83
1603462679.234375,-25.87
1603462679.25,-14.96
1603462679.265625,-4.25
1603462679.28125,5.34
1603462679.296875,13.23
1603462679.3125,19.18
1603462679.328125,23.19
1603462679.34375,25.43
1603462679.359375,26.15
1603462679.375,25.61
1603462679.390625,24.12
1603462679.40625,22.0
1603462679.421875,19.59
1603462679.4375,17.21
1603462679.453125,15.21
1603462679.46875,13.85
1603462679.484375,13.28
1603462679.5,13.51
1603462679.515625,14.42
1603462679.53125,15.83
1603462679.546875,17.55
1603462679.5625,19.42
1603462679.578125,21.29
1603462679.59375,22.96
1603462679.609375,24.19
1603462679.625,24.69
1603462679.640625,24.23
1603462679.65625,22.75
1603462679.671875,20.41
1603462679.6875,17.55
1603462679.703125,14.6
1603462679.71875,11.89
1603462679.734375,9.59
1603462679.75,7.63
1603462679.765625,5.81
1603462679.78125,3.94
1603462679.796875,1.97
1603462679.8125,-0.0
1603462679.828125,-1.79
1603462679.84375,-3.29
1603462679.859375,-4.53
1603462679.875,-5.75
1603462679.890625,-7.2
1603462679.90625,-9.07
1603462679.921875,-11.31
1603462679.9375,-13.73
1603462679.953125,-16.05
1603462679.96875,-18.08
1603462679.984375,-19.81
1603462680.0,-21.36
1603462680.015625,-22.95
1603462680.03125,-24.81
1603462680.046875,-27.15
1603462680.0625,-30.1
1603462680.078125,-33.68
1603462680.09375,-37.69
1603462680.109375,-41.63
1603462680.125,-44.73
1603462680.140625,-46.08
1603462680.15625,-44.9
1603462680.171875,-40.8
1603462680.1875,-33.92
1603462680.203125,-24.91
1603462680.21875,-14.72
1603462680.234375,-4.4
1603462680.25,5.16
1603462680.265625,13.3
1603462680.28125,19.68
1603462680.296875,24.17
1603462680.3125,26.81
1603462680.328125,27.71
1603462680.34375,27.07
1603462680.359375,25.17
1603462680.375,22.38
1603462680.390625,19.19
1603462680.40625,16.11
1603462680.421875,13.6
1603462680.4375,11.93
1603462680.453125,11.17
1603462680.46875,11.29
1603462680.484375,12.14
1603462680.5,13.59
1603462680.515625,15.45
1603462680.53125,17.51
1603462680.546875,19.4
1603462680.5625,20.73
1603462680.578125,21.22
1603462680.59375,20.74
1603462680.609375,19.44
1603462680.625,17.57
1603462680.640625,15.45
1603462680.65625,13.35
1603462680.671875,11.39
1603462680.6875,9.61
1603462680.703125,7.96
1603462680.71875,6.35
1603462680.734375,4.63
1603462680.75,2.7
1603462680.765625,0.49
1603462680.78125,-1.93
1603462680.796875,-4.37
1603462680.8125,-6.57
1603462680.828125,-8.36
1603462680.84375,-9.72
1603462680.859375,-10.8
1603462680.875,-11.94
1603462680.890625,-13.46
1603462680.90625,-15.55
1603462680.921875,-18.18
1603462680.9375,-21.12
1603462680.953125,-24.06
1603462680.96875,-26.73
1603462680.984375,-29.08
1603462681.0,-31.26
1603462681.015625,-33.61
1603462681.03125,-36.46
1603462681.046875,-39.95
1603462681.0625,-43.98
1603462681.078125,-48.06
1603462681.09375,-51.43
1603462681.109375,-53.25
1603462681.125,-52.78
1603462681.140625,-49.53
1603462681.15625,-43.44
1603462681.171875,-34.86
1603462681.1875,-24.52
1603462681.203125,-13.36
1603462681.21875,-2.41
1603462681.234375,7.43
1603462681.25,15.53
1603462681.265625,21.6
1603462681.28125,25.64
1603462681.296875,27.88
1603462681.3125,28.64
1603462681.328125,28.24
1603462681.34375,26.96
1603462681.359375,25.07
1603462681.375,22.9
1603462681.390625,20.8
1603462681.40625,19.11
1603462681.421875,18.08
1603462681.4375,17.79
1603462681.453125,18.14
1603462681.46875,18.99
1603462681.484375,20.13
1603462681.5,21.47
1603462681.515625,22.94
1603462681.53125,24.46
1603462681.546875,25.87
1603462681.5625,26.88
1603462681.578125,27.18
1603462681.59375,26.57
1603462681.609375,25.02
1603462681.625,22.74
1603462681.640625,20.1
1603462681.65625,17.44
1603462681.671875,14.96
1603462681.6875,12.68
1603462681.703125,10.49
1603462681.71875,8.28
1603462681.734375,6.06
1603462681.75,3.93
1603462681.765625,2.01
1603462681.78125,0.33
1603462681.796875,-1.21
1603462681.8125,-2.79
1603462681.828125,-4.6
1603462681.84375,-6.7
1603462681.859375,-9.03
1603462681.875,-11.46
1603462681.890625,-13.88
1603462681.90625,-16.25
1603462681.921875,-18.58
1603462681.9375,-20.88
1603462681.953125,-23.14
1603462681.96875,-25.28
1603462681.984375,-27.3
1603462682.0,-29.35
1603462682.015625,-31.71
1603462682.03125,-34.74
1603462682.046875,-38.67
1603462682.0625,-43.39
1603462682.078125,-48.37
1603462682.09375,-52.67
1603462682.109375,-55.13
1603462682.125,-54.74
1603462682.140625,-50.9
1603462682.15625,-43.69
1603462682.171875,-33.79
1603462682.1875,-22.3
1603462682.203125,-10.48
1603462682.21875,0.58
1603462682.234375,10.13
1603462682.25,17.78
1603462682.265625,23.45
1603462682.28125,27.19
1603462682.296875,29.17
1603462682.3125,29.61
1603462682.328125,28.79
1603462682.34375,27.09
1603462682.359375,24.93
1603462682.375,22.74
1603462682.390625,20.85
1603462682.40625,19.47
1603462682.421875,18.68
1603462682.4375,18.44
1603462682.453125,18.71
1603462682.46875,19.45
1603462682.484375,20.61
1603462682.5,22.14
1603462682.515625,23.93
1603462682.53125,25.73
1603462682.546875,27.25
1603462682.5625,28.15
1603462682.578125,28.18
1603462682.59375,27.24
1603462682.609375,25.42
1603462682.625,23.0
1603462682.640625,20.35
1603462682.65625,17.79
1603462682.671875,15.56
1603462682.6875,13.7
1603462682.703125,12.14
1603462682.71875,10.7
1603462682.734375,9.21
1603462682.75,7.57
1603462682.765625,5.74
1603462682.78125,3.75
1603462682.796875,1.69
1603462682.8125,-0.34
1603462682.828125,-2.27
1603462682.84375,-4.05
1603462682.859375,-5.73
1603462682.875,-7.45
1603462682.890625,-9.42
1603462682.90625,-11.78
1603462682.921875,-14.52
1603462682.9375,-17.46
1603462682.953125,-20.3
1603462682.96875,-22.81
1603462682.984375,-24.92
1603462683.0,-26.77
1603462683.015625,-28.73
1603462683.03125,-31.19
1603462683.046875,-34.41
1603462683.0625,-38.41
1603462683.078125,-42.92
1603462683.09375,-47.39
1603462683.109375,-51.07
1603462683.125,-53.09
1603462683.140625,-52.65
1603462683.15625,-49.23
1603462683.171875,-42.73
1603462683.1875,-33.61
1603462683.203125,-22.74
1603462683.21875,-11.24
1603462683.234375,-0.17
1603462683.25,9.64
1603462683.265625,17.7
1603462683.28125,23.85
1603462683.296875,28.12
1603462683.3125,30.63
1603462683.328125,31.54
1603462683.34375,31.03
1603462683.359375,29.35
1603462683.375,26.85
1603462683.390625,24.01
1603462683.40625,21.3
1603462683.421875,19.16
1603462683.4375,17.84
1603462683.453125,17.43
1603462683.46875,17.88
1603462683.484375,19.03
1603462683.5,20.77
1603462683.515625,22.94
1603462683.53125,25.33
1603462683.546875,27.62
1603462683.5625,29.45
1603462683.578125,30.45
1603462683.59375,30.42
1603462683.609375,29.36
1603462683.625,27.45
1603462683.640625,25.02
1603462683.65625,22.42
1603462683.671875,19.92
1603462683.6875,17.68
1603462683.703125,15.71
1603462683.71875,13.94
1603462683.734375,12.24
1603462683.75,10.46
1603462683.765625,8.51
1603462683.78125,6.39
1603462683.796875,4.17
1603462683.8125,1.99
1603462683.828125,-0.03
1603462683.84375,-1.85
1603462683.859375,-3.56
1603462683.875,-5.27
1603462683.890625,-7.12
1603462683.90625,-9.2
1603462683.921875,-11.5
1603462683.9375,-13.93
1603462683.953125,-16.33
1603462683.96875,-18.58
1603462683.984375,-20.64
1603462684.0,-22.54
1603462684.015625,-24.43
1603462684.03125,-26.5
1603462684.046875,-29.03
1603462684.0625,-32.26
1603462684.078125,-36.29
1603462684.09375,-41.0
1603462684.109375,-45.94
1603462684.125,-50.32
1603462684.140625,-53.16
1603462684.15625,-53.52
1603462684.171875,-50.8
1603462684.1875,-44.92
1603462684.203125,-36.31
1603462684.21875,-25.83
1603462684.234375,-14.53
1603462684.25,-3.39
1603462684.265625,6.77
1603462684.28125,15.35
1603462684.296875,21.96
1603462684.3125,26.38
1603462684.328125,28.58
1603462684.34375,28.73
1603462684.359375,27.22
1603462684.375,24.58
1603462684.390625,21.42
1603462684.40625,18.28
1603462684.421875,15.55
1603462684.4375,13.47
1603462684.453125,12.17
1603462684.46875,11.72
1603462684.484375,12.14
1603462684.5,13.39
1603462684.515625,15.35
1603462684.53125,17.77
1603462684.546875,20.29
1603462684.5625,22.54
1603462684.578125,24.15
1603462684.59375,24.86
1603462684.609375,24.56
1603462684.625,23.31
1603462684.640625,21.33
1603462684.65625,18.9
1603462684.671875,16.31
1603462684.6875,13.75
1603462684.703125,11.35
1603462684.71875,9.12
1603462684.734375,7.08
1603462684.75,5.21
1603462684.765625,3.42
1603462684.78125,1.65
1603462684.796875,-0.23
1603462684.8125,-2.26
1603462684.828125,-4.43
1603462684.84375,-6.63
1603462684.859375,-8.74
1603462684.875,-10.74
