1603272425.00
64.000000
-0.00
-0.00
-0.00
-0.00
-0.00
-0.00
-0.00
-0.00
-0.00
-0.00
0.00
0.01
0.01
-0.00
-0.03
-0.05
-0.05
0.00
0.13
0.36
0.66
1.01
1.37
1.72
2.06
2.40
2.79
3.24
3.80
4.42
5.06
5.66
6.20
6.68
7.15
7.68
8.31
9.14
10.09
11.04
11.88
12.56
13.14
13.76
14.65
15.96
17.91
20.32
22.90
25.38
27.58
29.57
31.68
34.32
37.81
42.54
48.15
54.10
59.83
64.97
69.58
74.14
79.34
85.71
93.76
103.00
112.62
121.73
129.77
136.75
143.30
150.75
157.77
166.64
177.95
191.79
206.97
220.57
228.25
225.36
208.53
176.87
132.76
80.05
23.07
-34.94
-92.44
-149.16
-205.23
-260.37
-313.74
-363.87
-409.83
-450.91
-486.50
-515.74
-537.23
-549.22
-549.96
-538.37
-514.21
-478.67
-433.88
-382.45
-327.02
-269.84
-212.63
-156.66
-102.95
-52.37
-5.90
35.58
71.43
101.35
125.50
144.38
158.69
169.15
176.37
180.75
182.57
182.07
179.51
175.23
169.65
163.18
156.15
148.81
141.30
133.69
126.02
118.33
110.69
103.16
95.80
88.68
81.83
75.25
68.95
62.95
57.25
51.86
46.78
42.03
37.59
33.45
29.61
26.07
22.81
19.83
17.11
14.67
12.48
10.54
8.83
7.35
6.07
4.97
4.05
3.27
2.62
2.09
1.65
1.30
1.01
0.79
0.61
0.47
0.37
0.29
0.23
0.19
0.17
0.16
0.16
0.17
0.19
0.21
0.24
0.28
0.32
0.36
0.40
0.45
0.50
0.54
0.59
0.65
0.70
0.76
0.83
0.90
0.97
1.06
1.15
1.26
1.38
1.51
1.66
1.82
2.01
2.21
2.44
2.69
2.97
3.28
3.62
3.99
4.39
4.83
5.31
5.82
6.37
6.96
7.60
8.27
9.00
9.76
10.58
11.43
12.34
13.28
14.29
15.35
16.48
17.67
18.92
20.19
21.46
22.66
23.70
24.48
24.86
24.75
24.01
22.59
20.43
17.57
14.08
10.03
5.65
1.11
-3.36
-7.55
-11.26
-14.37
-16.78
-18.42
-19.33
-19.53
-19.13
-18.22
-16.93
-15.38
-13.68
-11.94
-10.21
-8.54
-6.90
-5.27
-3.64
-1.99
-0.28
1.45
3.20
4.94
6.72
8.60
10.57
12.63
14.82
17.11
19.45
21.80
24.11
26.43
28.96
31.63
34.49
37.60
40.92
44.30
47.59
50.63
53.54
56.62
59.89
63.54
67.68
72.20
76.75
80.82
84.02
86.30
88.04
89.31
90.39
91.39
91.90
90.99
87.24
79.03
64.54
46.87
27.42
7.47
-12.15
-31.20
-50.02
-69.29
-89.87
-112.63
-138.08
-166.68
-197.33
-227.20
-252.12
-267.67
-270.81
-261.07
-240.79
-214.16
-186.09
-160.03
-137.44
-118.11
-101.17
-85.99
-72.47
-60.74
-50.64
-41.85
-33.59
-25.18
-16.39
-7.59
0.43
6.91
11.51
14.47
16.34
17.91
19.80
22.28
25.15
27.92
30.04
31.18
31.31
30.74
29.96
29.43
29.41
29.80
30.29
30.46
30.06
29.06
27.73
26.41
25.36
24.65
24.15
23.62
22.86
21.83
20.60
19.34
18.17
17.12
16.17
15.25
14.33
13.46
12.72
12.18
11.87
11.72
11.57
11.26
10.72
9.95
9.13
8.42
7.97
7.80
7.76
7.63
7.23
6.45
5.39
4.26
3.31
2.77
2.68
2.97
3.44
3.95
4.41
4.87
5.33
5.77
6.09
6.17
5.93
5.44
4.91
4.55
4.46
4.58
4.74
4.76
4.60
4.30
4.01
3.85
3.82
3.86
3.88
3.83
3.76
3.73
3.75
3.77
3.69
3.46
3.09
2.70
2.41
2.33
2.46
2.75
3.10
3.36
3.45
3.31
2.97
2.52
2.10
1.83
1.76
1.82
1.87
1.78
1.50
1.13
0.83
0.75
0.92
1.25
1.56
1.72
1.64
1.37
1.00
0.64
0.37
0.23
0.19
0.19
0.18
0.13
0.05
-0.03
-0.09
-0.14
-0.25
-0.46
-0.79
-1.13
-1.29
-1.10
-0.52
0.31
1.15
1.72
1.90
1.75
1.46
1.26
1.26
1.48
1.83
2.19
2.45
2.58
2.53
2.37
2.14
1.93
1.82
1.83
1.91
2.01
2.07
2.06
2.02
1.97
1.93
1.89
1.80
1.65
1.46
1.22
0.99
0.80
0.69
0.66
0.70
0.80
0.90
0.97
1.04
1.14
1.30
1.50
1.66
1.72
1.61
1.36
1.02
0.63
0.20
-0.28
-0.76
-1.18
-1.40
-1.33
-0.98
-0.49
-0.04
0.24
0.33
0.32
0.38
0.59
0.94
1.28
1.44
1.31
0.89
0.32
-0.18
-0.42
-0.33
0.03
0.45
0.70
0.60
0.12
-0.62
-1.42
-2.12
-2.59
-2.81
-2.80
-2.59
-2.18
-1.58
-0.86
-0.14
0.40
0.62
0.50
0.15
-0.22
-0.43
-0.35
-0.00
0.51
1.01
1.36
1.46
1.32
1.00
0.66
0.41
0.36
0.56
0.96
1.46
1.98
2.39
2.61
2.63
2.43
2.12
1.78
1.56
1.55
1.76
2.12
2.48
2.74
2.82
2.75
2.59
2.38
2.16
1.89
1.53
1.05
0.47
-0.11
-0.60
-0.90
-1.01
-1.01
-1.02
-1.15
-1.41
-1.72
-1.95
-1.98
-1.79
-1.45
-1.03
-0.63
-0.27
-0.00
0.12
0.05
-0.25
-0.69
-1.09
-1.26
-1.12
-0.71
-0.24
0.07
0.07
-0.24
-0.73
-1.24
-1.59
-1.68
-1.51
-1.10
-0.57
-0.05
0.38
0.64
0.75
0.77
0.75
0.73
0.71
0.64
0.50
0.35
0.27
0.30
0.44
0.63
0.75
0.74
0.61
0.44
0.37
0.50
0.85
1.37
1.94
2.41
2.72
2.80
2.69
2.41
2.00
1.52
1.02
0.58
0.28
0.15
0.13
0.11
-0.04
-0.36
-0.80
-1.22
-1.49
-1.53
-1.35
-1.01
-0.62
-0.25
0.03
0.18
0.15
-0.04
-0.37
-0.73
-0.97
-0.96
-0.64
-0.02
0.72
1.36
1.68
1.55
1.00
0.19
-0.66
-1.38
-1.90
-2.20
-2.27
-2.16
-1.85
-1.36
-0.81
-0.28
0.14
0.43
0.69
1.00
1.42
1.92
2.36
2.61
2.58
2.27
1.81
1.34
1.02
0.89
0.95
1.11
1.31
1.48
1.60
1.67
1.68
1.64
1.51
1.29
1.03
0.80
0.66
0.64
0.67
0.65
0.48
0.16
-0.22
-0.54
-0.68
-0.60
-0.35
-0.07
0.12
0.15
-0.00
-0.26
-0.53
-0.73
-0.81
-0.74
-0.54
-0.21
0.20
0.62
0.94
1.06
0.90
0.45
-0.19
-0.85
-1.35
-1.52
-1.36
-0.96
-0.52
-0.25
-0.29
-0.57
-0.98
-1.27
-1.31
-1.09
-0.78
-0.57
-0.64
-1.00
-1.49
-1.91
-2.05
-1.86
-1.43
-0.90
-0.40
0.04
0.43
0.83
1.23
1.56
1.73
1.69
1.49
1.25
1.05
0.92
0.86
0.76
0.59
0.38
0.17
0.06
0.08
0.19
0.36
0.54
0.71
0.88
1.06
1.27
1.50
1.72
1.87
1.91
1.82
1.60
1.31
1.04
0.88
0.88
1.04
1.26
1.41
1.37
1.06
0.55
-0.03
-0.52
-0.78
-0.80
-0.70
-0.60
-0.57
-0.59
-0.56
-0.45
-0.28
-0.12
-0.04
-0.02
0.02
0.19
0.51
0.87
1.12
1.12
0.84
0.35
-0.22
-0.76
-1.21
-1.55
-1.76
-1.80
-1.67
-1.39
-1.10
-0.93
-0.97
-1.22
-1.61
-2.04
-2.43
-2.76
-3.00
-3.10
-2.98
-2.54
-1.75
-0.69
0.45
1.44
2.10
2.35
2.25
1.92
1.52
1.20
1.03
1.06
1.31
1.72
2.19
2.57
2.72
2.59
2.19
1.65
1.06
0.54
0.16
-0.00
0.09
0.43
0.97
1.51
1.85
1.86
1.54
1.02
0.49
0.12
-0.08
-0.17
-0.23
-0.30
-0.34
-0.33
-0.30
-0.31
-0.47
-0.78
-1.14
-1.40
-1.41
-1.16
-0.72
-0.28
0.01
0.11
0.04
-0.09
-0.20
-0.27
-0.34
-0.46
-0.68
-0.98
-1.29
-1.52
-1.59
-1.50
-1.33
-1.19
-1.19
-1.37
-1.68
-2.03
-2.31
-2.45
-2.43
-2.24
-1.89
-1.44
-0.93
-0.45
-0.09
0.14
0.27
0.37
0.49
0.65
0.83
0.96
1.06
1.17
1.32
1.50
1.64
1.64
1.44
1.10
0.78
0.66
0.81
1.15
1.51
1.69
1.61
1.37
1.16
1.15
1.36
1.68
1.90
1.83
1.44
0.82
0.18
-0.33
-0.61
-0.72
-0.76
-0.86
-1.06
-1.30
-1.46
-1.45
-1.22
-0.87
-0.53
-0.39
-0.51
-0.85
-1.25
-1.50
-1.48
-1.17
-0.66
-0.06
0.55
1.15
1.71
2.18
2.43
2.35
1.92
1.26
0.59
0.13
0.01
0.20
0.52
0.81
0.91
0.80
0.53
0.15
-0.29
-0.78
-1.30
-1.84
-2.32
-2.65
-2.75
-2.55
-2.13
-1.59
-1.09
-0.76
-0.64
-0.64
-0.65
-0.52
-0.22
0.21
0.67
1.04
1.27
1.40
1.46
1.54
1.64
1.70
1.66
1.49
1.22
0.94
0.77
0.74
0.84
0.95
1.00
0.97
0.93
0.93
0.96
0.96
0.81
0.45
-0.04
-0.51
-0.79
-0.81
-0.61
-0.30
-0.03
0.15
0.23
0.24
0.19
0.04
-0.22
-0.58
-0.94
-1.18
-1.20
-0.95
-0.52
-0.03
0.42
0.74
0.96
1.14
1.28
1.37
1.37
1.24
1.01
0.76
0.59
0.53
0.53
0.45
0.18
-0.33
-0.97
-1.61
-2.09
-2.35
-2.43
-2.44
-2.49
-2.62
-2.75
-2.82
-2.74
-2.48
-2.08
-1.55
-0.91
-0.18
0.57
1.23
1.73
1.99
2.01
1.88
1.71
1.57
1.51
1.51
1.56
1.59
1.58
1.50
1.38
1.25
1.17
1.18
1.29
1.47
1.62
1.62
1.42
0.99
0.39
-0.24
-0.75
-1.01
-0.97
-0.65
-0.15
0.36
0.74
0.91
0.91
0.84
0.83
0.94
1.09
1.18
1.09
0.83
0.50
0.27
0.23
0.35
0.46
0.43
0.19
-0.17
-0.52
-0.76
-0.91
-1.10
-1.39
-1.77
-2.06
-2.11
-1.82
-1.28
-0.70
-0.35
-0.37
-0.75
-1.35
-1.99
-2.54
-2.92
-3.10
-3.05
-2.74
-2.14
-1.29
-0.35
0.48
1.01
1.16
0.99
0.70
0.50
0.50
0.72
1.09
1.48
1.83
2.11
2.32
2.46
2.51
2.49
2.40
2.30
2.21
2.11
1.95
1.71
1.37
0.98
0.55
0.09
-0.40
-0.90
-1.32
-1.52
-1.43
-1.08
-0.59
-0.16
0.05
0.02
-0.16
-0.32
-0.33
-0.12
0.28
0.77
1.22
1.51
1.56
1.31
0.77
0.00
-0.89
-1.78
-2.49
-2.88
-2.88
-2.46
-1.77
-1.00
-0.35
0.04
0.17
0.11
-0.03
-0.17
-0.26
-0.28
-0.25
-0.17
-0.07
-0.01
-0.03
-0.15
-0.37
-0.64
-0.91
-1.19
-1.46
-1.74
-1.98
-2.15
-2.17
-1.99
-1.65
-1.21
-0.76
-0.36
-0.05
0.18
0.35
0.44
0.42
0.25
-0.03
-0.33
-0.51
-0.45
-0.13
0.37
0.86
1.14
1.15
0.94
0.70
0.62
0.80
1.20
1.69
2.08
2.28
2.27
2.10
1.86
1.61
1.37
1.12
0.86
0.63
0.49
0.52
0.72
1.03
1.32
1.44
1.31
0.98
0.58
0.26
0.14
0.22
0.39
0.49
0.35
-0.09
-0.80
-1.62
-2.34
-2.79
-2.84
-2.50
-1.91
-1.24
-0.67
-0.34
-0.30
-0.56
-1.06
-1.72
-2.43
-3.04
-3.43
-3.48
-3.17
-2.60
-1.91
-1.27
-0.77
-0.46
-0.29
-0.21
-0.16
-0.12
-0.06
0.04
0.18
0.38
0.60
0.80
0.95
1.04
1.11
1.20
1.33
1.43
1.42
1.20
0.81
0.40
0.14
0.17
0.47
0.86
1.10
1.05
0.72
0.32
0.10
0.21
0.58
1.03
1.29
1.24
0.98
0.69
0.57
0.69
0.97
1.25
1.39
1.32
1.10
0.79
0.47
0.18
-0.08
-0.24
-0.28
-0.14
0.18
0.58
0.92
1.07
0.99
0.68
0.27
-0.11
-0.35
-0.40
-0.30
-0.11
0.08
0.22
0.27
0.21
-0.01
-0.38
-0.86
-1.36
-1.78
-2.09
-2.32
-2.55
-2.84
-3.16
-3.38
-3.32
-2.89
-2.14
-1.25
-0.40
0.25
0.70
1.00
1.19
1.29
1.26
1.08
0.80
0.55
0.47
0.60
0.91
1.26
1.48
1.49
1.27
0.93
0.58
0.33
0.18
0.12
0.10
0.08
0.07
0.13
0.30
0.58
0.89
1.11
1.17
1.02
0.77
0.54
0.44
0.53
0.78
1.12
1.47
1.76
1.92
1.93
1.79
1.50
1.10
0.63
0.16
-0.32
-0.73
-1.03
-1.13
-0.99
-0.67
-0.29
-0.06
-0.13
-0.50
-1.01
-1.41
-1.49
-1.23
-0.76
-0.30
-0.00
0.09
0.07
0.06
0.12
0.22
0.20
-0.05
-0.56
-1.26
-1.95
-2.45
-2.66
-2.60
-2.36
-2.05
-1.77
-1.52
-1.31
-1.07
-0.79
-0.47
-0.15
0.13
0.32
0.44
0.50
0.54
0.63
0.83
1.15
1.55
1.95
2.24
2.33
2.17
1.80
1.32
0.89
0.63
0.60
0.73
0.89
0.92
0.76
0.43
0.11
-0.01
0.16
0.57
1.02
1.30
1.27
0.96
0.48
0.01
-0.33
-0.49
-0.45
-0.24
0.14
0.63
1.12
1.47
1.58
1.36
0.84
0.18
-0.46
-0.92
-1.12
-1.09
-0.92
-0.72
-0.59
-0.56
-0.61
-0.68
-0.74
-0.80
-0.90
-1.08
-1.32
-1.57
-1.74
-1.81
-1.86
-1.98
-2.26
-2.68
-3.12
-3.37
-3.31
-2.88
-2.16
-1.35
-0.64
-0.15
0.12
0.25
0.33
0.47
0.70
1.01
1.36
1.69
1.94
2.06
2.06
1.98
1.86
1.75
1.68
1.65
1.63
1.62
1.61
1.64
1.70
1.77
1.82
1.86
1.85
1.82
1.77
1.70
1.61
1.46
1.26
1.01
0.76
0.56
0.46
0.52
0.73
1.01
1.26
1.36
1.21
0.83
0.28
-0.30
-0.76
-1.06
-1.21
-1.26
-1.28
-1.26
-1.19
-1.01
-0.72
-0.40
-0.20
-0.27
-0.65
-1.26
-1.92
-2.40
-2.51
-2.26
-1.74
-1.16
-0.73
-0.56
-0.63
-0.81
-0.95
-1.02
-1.09
-1.35
-1.94
-2.86
-3.92
-4.82
-5.27
-5.17
-4.62
-3.83
-3.04
-2.37
-1.78
-1.17
-0.48
0.27
1.00
1.60
2.03
2.31
2.53
2.74
2.96
3.13
3.12
2.87
2.38
1.76
1.16
0.72
0.54
0.60
0.83
1.16
1.53
1.94
2.35
2.72
2.95
2.98
2.78
2.40
1.97
1.60
1.35
1.23
1.13
0.94
0.64
0.29
0.02
-0.07
0.05
0.28
0.43
0.38
0.12
-0.25
-0.54
-0.63
-0.50
-0.21
0.14
0.47
0.76
0.95
0.95
0.73
0.24
-0.40
-1.04
-1.49
-1.66
-1.58
-1.36
-1.17
-1.12
-1.26
-1.56
-1.96
-2.39
-2.80
-3.15
-3.40
-3.53
-3.49
-3.27
-2.85
-2.30
-1.71
-1.22
-0.92
-0.84
-0.91
-0.97
-0.88
-0.57
-0.05
0.54
1.05
1.33
1.33
1.06
0.67
0.31
0.10
0.13
0.35
0.66
0.95
1.17
1.33
1.49
1.69
1.95
2.22
2.44
2.58
2.63
2.65
2.67
2.70
2.71
2.66
2.54
2.31
1.99
1.59
1.11
0.60
0.14
-0.22
-0.39
-0.34
-0.07
0.35
0.82
1.23
1.49
1.57
1.44
1.15
0.74
0.30
-0.11
-0.44
-0.68
-0.84
-0.96
-1.05
-1.12
-1.15
-1.14
-1.12
-1.13
-1.21
-1.41
-1.73
-2.12
-2.55
-3.00
-3.39
-3.64
-3.64
-3.34
-2.78
-2.14
-1.65
-1.48
-1.64
-2.00
-2.30
-2.36
-2.11
-1.66
-1.18
-0.76
-0.46
-0.21
0.05
0.30
0.47
0.50
0.38
0.21
0.15
0.34
0.81
1.44
2.06
2.49
2.63
2.52
2.28
2.01
1.81
1.72
1.68
1.68
1.64
1.56
1.41
1.21
1.02
0.89
0.88
0.96
1.05
1.03
0.84
0.50
0.14
-0.10
-0.14
-0.03
0.13
0.25
0.28
0.20
0.07
-0.15
-0.45
-0.79
-1.06
-1.11
-0.80
-0.10
0.88
1.92
2.77
3.27
3.34
3.07
2.56
1.99
1.45
1.03
0.73
0.48
0.21
-0.11
-0.47
-0.87
-1.25
-1.60
-1.92
-2.22
-2.50
-2.78
-3.09
-3.45
-3.87
-4.28
-4.59
-4.69
-4.48
-3.99
-3.29
-2.49
-1.65
-0.78
0.10
0.94
1.62
1.98
1.94
1.55
1.04
0.65
0.55
0.74
1.05
1.25
1.25
1.10
0.98
1.02
1.28
1.63
1.88
1.91
1.63
1.18
0.74
0.46
0.42
0.58
0.80
0.92
0.85
0.59
0.26
0.00
-0.03
0.22
0.69
1.24
1.70
1.93
1.89
1.62
1.22
0.78
0.38
0.05
-0.20
-0.36
-0.36
-0.20
0.13
0.53
0.84
0.92
0.69
0.13
-0.66
-1.51
-2.24
-2.72
-2.87
-2.77
-2.49
-2.16
-1.90
-1.73
-1.65
-1.63
-1.63
-1.66
-1.74
-1.89
-2.08
-2.27
-2.40
-2.48
-2.51
-2.57
-2.66
-2.79
-2.87
-2.83
-2.58
-2.11
-1.48
-0.79
-0.17
0.28
0.55
0.68
0.76
0.87
1.08
1.38
1.71
2.04
2.30
2.50
2.66
2.79
2.93
3.05
3.09
3.00
2.72
2.24
1.64
1.05
0.59
0.35
0.35
0.51
0.75
0.95
1.11
1.22
1.36
1.53
1.72
1.88
1.95
1.90
1.73
1.47
1.20
0.93
0.70
0.54
0.45
0.40
0.39
0.34
0.23
0.03
-0.25
-0.56
-0.87
-1.10
-1.19
-1.09
-0.82
-0.45
-0.10
0.11
0.13
-0.03
-0.27
-0.46
-0.52
-0.49
-0.45
-0.51
-0.70
-0.97
-1.21
-1.32
-1.32
-1.32
-1.50
-1.94
-2.61
-3.33
-3.90
-4.14
-4.01
-3.56
-2.89
-2.12
-1.36
-0.68
-0.16
0.17
0.31
0.32
0.34
0.47
0.74
1.14
1.59
2.00
2.33
2.54
2.66
2.67
2.59
2.47
2.36
2.33
2.39
2.49
2.54
2.41
2.03
1.45
0.83
0.34
0.13
0.21
0.49
0.82
1.09
1.27
1.38
1.47
1.55
1.58
1.48
1.18
0.69
0.10
-0.45
-0.81
-0.89
-0.75
-0.51
-0.35
-0.37
-0.57
-0.86
-1.10
-1.16
-1.01
-0.71
-0.37
-0.10
0.02
0.00
-0.14
-0.35
-0.59
-0.87
-1.25
-1.74
-2.31
-2.85
-3.23
-3.34
-3.16
-2.78
-2.36
-2.03
-1.83
-1.76
-1.78
-1.84
-1.95
-2.12
-2.29
-2.40
-2.32
-1.99
-1.40
-0.63
0.19
0.92
1.43
1.70
1.71
1.56
1.38
1.24
1.18
1.17
1.10
0.91
0.59
0.27
0.04
0.01
0.14
0.36
0.53
0.63
0.66
0.71
0.81
0.97
1.11
1.18
1.15
1.06
0.96
0.92
0.92
0.99
1.08
1.19
1.32
1.49
1.68
1.85
1.95
1.91
1.70
1.34
0.92
0.56
0.36
0.38
0.55
0.76
0.86
0.77
0.51
0.18
-0.07
-0.16
-0.06
0.11
0.25
0.27
0.15
-0.00
-0.12
-0.18
-0.26
-0.48
-0.94
-1.60
-2.35
-2.96
-3.26
-3.20
-2.88
-2.50
-2.25
-2.30
-2.63
-3.14
-3.65
-3.99
-4.02
-3.65
-2.94
-1.97
-0.92
0.03
0.73
1.14
1.27
1.20
1.06
0.95
0.95
1.07
1.31
1.62
1.93
2.15
2.23
2.14
1.95
1.77
1.71
1.81
2.04
2.30
2.48
2.52
2.42
2.24
2.05
1.86
1.65
1.36
0.96
0.46
-0.02
-0.38
-0.50
-0.37
-0.08
0.22
0.37
0.32
0.10
-0.14
-0.29
-0.26
-0.12
0.03
0.13
0.16
0.20
0.30
0.43
0.52
0.43
0.10
-0.44
-1.05
-1.63
-2.08
-2.38
-2.52
-2.41
-1.99
-1.21
-0.20
0.81
1.52
1.74
1.42
0.70
-0.20
-1.04
-1.65
-1.90
-1.80
-1.43
-0.93
-0.49
-0.29
-0.35
-0.63
-0.97
-1.21
-1.27
-1.16
-0.94
-0.67
-0.39
-0.14
0.05
0.13
0.09
-0.02
-0.13
-0.19
-0.17
-0.14
-0.15
-0.21
-0.27
-0.24
-0.07
0.22
0.54
0.78
0.86
0.79
0.65
0.55
0.52
0.58
0.70
0.83
0.94
1.01
1.08
1.10
1.05
0.88
0.54
0.06
-0.52
-1.07
-1.48
-1.61
-1.41
-0.91
-0.17
0.65
1.36
1.78
1.79
1.39
0.68
-0.11
-0.72
-0.94
-0.70
-0.12
0.58
1.17
1.52
1.64
1.60
1.52
1.43
1.29
1.03
0.62
0.10
-0.41
-0.78
-0.97
-1.01
-1.05
-1.19
-1.48
-1.87
-2.26
-2.56
-2.80
-3.01
-3.30
-3.68
-4.07
-4.30
-4.24
-3.79
-3.01
-2.04
-1.04
-0.13
0.62
1.21
1.64
1.89
1.96
1.83
1.56
1.26
1.06
1.06
1.27
1.60
1.89
2.01
1.90
1.66
1.38
1.15
1.00
0.91
0.85
0.80
0.82
0.92
1.10
1.29
1.41
1.42
1.33
1.19
1.08
1.09
1.22
1.41
1.58
1.67
1.65
1.55
1.44
1.36
1.31
1.26
1.15
0.93
0.63
0.34
0.14
0.09
0.12
0.12
-0.01
-0.29
-0.66
-0.98
-1.15
-1.17
-1.12
-1.12
-1.24
-1.46
-1.71
-1.87
-1.89
-1.77
-1.56
-1.30
-1.05
-0.83
-0.70
-0.74
-0.96
-1.33
-1.75
-2.06
-2.13
-1.99
-1.75
-1.60
-1.69
-2.02
-2.48
-2.83
-2.88
-2.56
-1.95
-1.20
-0.50
0.08
0.52
0.86
1.13
1.26
1.19
0.92
0.55
0.25
0.20
0.45
0.86
1.20
1.30
1.13
0.87
0.76
0.97
1.46
2.04
2.46
2.60
2.47
2.20
1.93
1.73
1.56
1.41
1.27
1.17
1.16
1.24
1.34
1.35
1.21
0.95
0.66
0.44
0.36
0.43
0.63
0.89
1.13
1.29
1.26
0.99
0.46
-0.23
-0.95
-1.47
-1.65
-1.45
-0.93
-0.28
0.34
0.80
1.06
1.16
1.10
0.91
0.60
0.24
-0.08
-0.23
-0.15
0.09
0.33
0.40
0.16
-0.33
-0.92
-1.40
-1.66
-1.73
-1.73
-1.84
-2.14
-2.63
-3.23
-3.82
-4.32
-4.63
-4.64
-4.25
-3.43
-2.24
-0.85
0.48
1.49
2.06
2.21
2.08
1.87
1.74
1.76
1.92
2.10
2.24
2.26
2.17
1.99
1.80
1.60
1.42
1.26
1.12
1.01
0.96
0.95
0.98
1.03
1.11
1.25
1.48
1.78
2.08
2.28
2.28
2.08
1.78
1.48
1.27
1.08
0.79
0.25
-0.53
-1.39
-2.09
-2.44
-2.42
-2.19
-1.95
-1.90
-2.03
-2.25
-2.36
-2.28
-2.04
-1.75
-1.56
-1.51
-1.57
-1.65
-1.63
-1.46
-1.14
-0.76
-0.43
-0.25
-0.27
-0.48
-0.82
-1.19
-1.49
-1.66
-1.68
-1.57
-1.33
-0.99
-0.57
-0.14
0.19
0.30
0.09
-0.47
-1.29
-2.19
-2.94
-3.35
-3.34
-2.96
-2.32
-1.58
-0.90
-0.38
-0.06
0.10
0.16
0.23
0.41
0.73
1.17
1.60
1.93
2.10
2.13
2.09
2.07
2.09
2.13
2.17
2.18
2.15
2.07
1.96
1.85
1.74
1.65
1.57
1.45
1.23
0.89
0.48
0.10
-0.12
-0.11
0.10
0.41
0.72
0.96
1.12
1.24
1.32
1.33
1.26
1.11
0.91
0.76
0.71
0.76
0.88
0.99
1.03
0.95
0.80
0.62
0.46
0.33
0.19
0.01
-0.28
-0.63
-0.96
-1.18
-1.25
-1.17
-1.02
-0.91
-0.87
-0.90
-0.93
-0.89
-0.74
-0.53
-0.35
-0.30
-0.46
-0.77
-1.17
-1.51
-1.73
-1.79
-1.74
-1.68
-1.67
-1.78
-2.01
-2.31
-2.63
-2.88
-3.00
-2.88
-2.49
-1.82
-0.97
-0.08
0.67
1.15
1.29
1.16
0.87
0.53
0.29
0.19
0.31
0.62
1.11
1.64
2.05
2.22
2.08
1.71
1.26
0.93
0.80
0.82
0.90
0.94
0.96
1.00
1.13
1.30
1.39
1.31
1.03
0.70
0.52
0.61
0.92
1.22
1.28
0.94
0.31
-0.35
-0.75
-0.72
-0.32
0.26
0.80
1.12
1.16
0.93
0.48
-0.11
-0.72
-1.16
-1.25
-0.87
-0.08
0.88
1.71
2.14
2.11
1.72
1.20
0.73
0.41
0.17
-0.08
-0.44
-0.92
-1.46
-1.92
-2.20
-2.28
-2.21
-2.10
-2.06
-2.16
-2.39
-2.72
-3.10
-3.49
-3.84
-4.09
-4.12
-3.81
-3.07
-1.94
-0.61
0.59
1.35
1.52
1.16
0.55
0.05
-0.11
0.11
0.54
0.97
1.20
1.23
1.12
1.01
0.96
0.96
0.96
0.90
0.83
0.78
0.81
0.93
1.07
1.17
1.21
1.21
1.24
1.37
1.56
1.74
1.80
1.70
1.49
1.28
1.21
1.35
1.66
2.06
2.42
2.66
2.75
2.70
2.54
2.28
1.91
1.47
1.03
0.62
0.28
0.03
-0.12
-0.20
-0.24
-0.31
-0.45
-0.73
-1.13
-1.58
-1.97
-2.17
-2.14
-1.90
-1.61
-1.41
-1.39
-1.57
-1.84
-2.09
-2.25
-2.33
-2.34
-2.34
-2.37
-2.43
-2.53
-2.70
-2.92
-3.17
-3.34
-3.32
-3.02
-2.40
-1.57
-0.66
0.16
0.76
1.08
1.10
0.90
0.59
0.32
0.21
0.32
0.62
0.99
1.34
1.61
1.80
1.95
2.07
2.12
2.03
1.78
1.45
1.19
1.15
1.34
1.67
1.95
2.04
1.93
1.72
1.54
1.44
1.40
1.33
1.20
1.03
0.90
0.87
0.91
0.90
0.75
0.44
0.04
-0.31
-0.53
-0.59
-0.55
-0.46
-0.33
-0.13
0.16
0.52
0.83
0.94
0.77
0.35
-0.18
-0.66
-0.94
-1.03
-0.98
-0.92
-0.89
-0.83
-0.72
-0.52
-0.30
-0.18
-0.29
-0.61
-1.03
-1.35
-1.46
-1.37
-1.23
-1.25
-1.54
-2.08
-2.68
-3.20
-3.53
-3.68
-3.69
-3.60
-3.36
-2.87
-2.13
-1.17
-0.21
0.54
0.92
0.88
0.54
0.11
-0.20
-0.23
0.02
0.45
0.90
1.24
1.41
1.46
1.51
1.63
1.86
2.12
2.27
2.24
2.00
1.60
1.14
0.72
0.40
0.20
0.15
0.21
0.33
0.49
0.62
0.72
0.79
0.88
1.05
1.33
1.67
2.00
2.23
2.29
2.18
1.97
1.73
1.54
1.38
1.24
1.06
0.83
0.57
0.31
0.08
-0.12
-0.34
-0.57
-0.83
-1.06
-1.21
-1.19
-1.00
-0.68
-0.33
-0.07
-0.00
-0.17
-0.56
-1.10
-1.68
-2.18
-2.51
-2.57
-2.33
-1.87
-1.31
-0.85
-0.59
-0.54
-0.56
-0.51
-0.24
0.24
0.79
1.20
1.31
1.07
0.59
0.03
-0.44
-0.74
-0.85
-0.84
-0.78
-0.70
-0.63
-0.58
-0.53
-0.48
-0.43
-0.36
-0.25
-0.09
0.09
0.29
0.46
0.63
0.80
1.04
1.34
1.70
2.05
2.27
2.29
2.05
1.61
1.09
0.66
0.44
0.44
0.57
0.66
0.64
0.48
0.29
0.19
0.23
0.33
0.36
0.17
-0.26
-0.84
-1.38
-1.71
-1.74
-1.50
-1.08
-0.64
-0.27
-0.03
0.10
0.18
0.23
0.27
0.27
0.18
0.04
-0.14
-0.30
-0.41
-0.53
-0.74
-1.12
-1.65
-2.22
-2.63
-2.75
-2.56
-2.17
-1.75
-1.49
-1.48
-1.72
-2.09
-2.49
-2.78
-2.92
-2.88
-2.68
-2.29
-1.75
-1.10
-0.39
0.25
0.76
1.07
1.20
1.20
1.18
1.18
1.25
1.37
1.50
1.57
1.59
1.58
1.58
1.65
1.79
1.99
2.17
2.25
2.16
1.86
1.39
0.84
0.32
-0.02
-0.11
0.07
0.46
0.95
1.42
1.79
1.97
1.97
1.80
1.52
1.19
0.90
0.70
0.62
0.66
0.80
1.03
1.31
1.58
1.78
1.81
1.61
1.17
0.55
-0.08
-0.58
-0.81
-0.79
-0.58
-0.33
-0.17
-0.17
-0.35
-0.63
-0.93
-1.17
-1.31
-1.32
-1.24
-1.10
-0.99
-0.97
-1.13
-1.44
-1.84
-2.21
-2.39
-2.34
-2.11
-1.83
-1.63
-1.61
-1.73
-1.92
-2.07
-2.11
-2.10
-2.09
-2.14
-2.19
-2.10
-1.73
-1.04
-0.15
0.72
1.34
1.55
1.44
1.19
1.00
0.97
1.08
1.14
1.03
0.69
0.23
-0.17
-0.34
-0.19
0.26
0.88
1.54
2.09
2.46
2.60
2.53
2.27
1.91
1.53
1.18
0.91
0.72
0.62
0.61
0.69
0.84
1.04
1.25
1.42
1.48
1.40
1.15
0.74
0.25
-0.18
-0.42
-0.39
-0.10
0.29
0.61
0.75
0.71
0.60
0.53
0.57
0.67
0.70
0.56
0.27
-0.10
-0.41
-0.57
-0.58
-0.51
-0.46
-0.48
-0.60
-0.83
-1.13
-1.50
-1.88
-2.21
-2.40
-2.38
-2.12
-1.70
-1.23
-0.86
-0.73
-0.91
-1.46
-2.34
-3.45
-4.54
-5.37
-5.67
-5.30
-4.30
-2.90
-1.45
-0.26
0.48
0.77
0.76
0.67
0.66
0.78
1.01
1.24
1.43
1.54
1.63
1.74
1.85
1.91
1.81
1.53
1.15
0.86
0.85
1.22
1.90
2.65
3.18
3.29
2.98
2.39
1.76
1.29
1.06
1.03
1.11
1.21
1.30
1.35
1.37
1.32
1.15
0.84
0.42
-0.01
-0.31
-0.35
-0.10
0.33
0.73
0.89
0.68
0.18
-0.40
-0.79
-0.87
-0.63
-0.25
0.09
0.26
0.27
0.23
0.25
0.35
0.52
0.68
0.79
0.85
0.84
0.77
0.54
0.10
-0.56
-1.31
-2.01
-2.49
-2.76
-2.90
-3.07
-3.39
-3.83
-4.28
-4.61
-4.80
-4.87
-4.86
-4.72
-4.38
-3.75
-2.85
-1.83
-0.92
-0.28
0.08
0.24
0.34
0.45
0.59
0.76
0.97
1.25
1.62
2.07
2.50
2.83
3.01
3.06
3.06
3.11
3.25
3.46
3.69
3.86
3.94
3.89
3.74
3.51
3.28
3.07
2.90
2.71
2.47
2.18
1.87
1.59
1.35
1.12
0.81
0.40
-0.07
-0.48
-0.66
-0.51
-0.06
0.54
1.03
1.18
0.88
0.16
-0.77
-1.65
-2.27
-2.52
-2.41
-2.06
-1.64
-1.27
-0.99
-0.81
-0.70
-0.65
-0.64
-0.68
-0.75
-0.82
-0.84
-0.78
-0.66
-0.54
-0.51
-0.65
-0.94
-1.30
-1.64
-1.95
-2.28
-2.75
-3.45
-4.31
-5.15
-5.65
-5.59
-4.88
-3.70
-2.38
-1.23
-0.44
0.00
0.28
0.55
0.90
1.27
1.55
1.62
1.49
1.24
0.99
0.83
0.83
0.95
1.17
1.47
1.80
2.11
2.30
2.35
2.27
2.13
2.03
2.01
2.07
2.11
2.03
1.81
1.49
1.16
0.88
0.69
0.57
0.51
0.47
0.45
0.48
0.55
0.65
0.74
0.80
0.81
0.77
0.70
0.60
0.48
0.34
0.21
0.10
0.02
-0.03
-0.10
-0.21
-0.37
-0.52
-0.63
-0.63
-0.54
-0.44
-0.41
-0.53
-0.77
-1.05
-1.26
-1.37
-1.42
-1.49
-1.62
-1.79
-1.89
-1.90
-1.86
-1.95
-2.32
-3.02
-3.93
-4.81
-5.33
-5.29
-4.67
-3.59
-2.29
-1.06
-0.08
0.53
0.79
0.80
0.72
0.70
0.82
1.07
1.37
1.66
1.89
2.07
2.22
2.32
2.36
2.31
2.21
2.11
2.08
2.19
2.41
2.66
2.85
2.91
2.87
2.75
2.61
2.49
2.37
2.20
1.94
1.61
1.22
0.83
0.50
0.30
0.25
0.32
0.46
0.58
0.61
0.52
0.31
0.05
-0.20
-0.41
-0.52
-0.48
-0.27
0.11
0.55
0.88
0.95
0.67
0.12
-0.50
-0.98
-1.18
-1.09
-0.84
-0.59
-0.45
-0.45
-0.55
-0.72
-0.94
-1.21
-1.53
-1.83
-2.04
-2.08
-1.93
-1.66
-1.41
-1.34
-1.55
-2.05
-2.78
-3.59
-4.36
-4.95
-5.28
-5.26
-4.85
-4.06
-3.01
-1.86
-0.82
-0.03
0.44
0.70
0.87
1.08
1.41
1.83
2.27
2.65
2.91
3.04
3.06
2.97
2.82
2.64
2.46
2.33
2.25
2.21
2.20
2.21
2.21
2.20
2.20
2.18
2.14
2.08
1.99
1.89
1.81
1.79
1.81
1.84
1.80
1.64
1.34
0.92
0.46
0.03
-0.28
-0.43
-0.41
-0.22
0.09
0.39
0.59
0.58
0.36
0.01
-0.33
-0.51
-0.51
-0.42
-0.39
-0.54
-0.90
-1.37
-1.83
-2.19
-2.43
-2.60
-2.74
-2.86
-2.92
-2.90
-2.77
-2.61
-2.49
-2.45
-2.47
-2.49
-2.48
-2.45
-2.53
-2.82
-3.39
-4.16
-4.90
-5.33
-5.21
-4.51
-3.36
-2.03
-0.78
0.26
1.05
1.68
2.17
2.52
2.72
2.77
2.73
2.65
2.59
2.54
2.47
2.35
2.21
2.12
2.09
2.14
2.20
2.22
2.20
2.20
2.26
2.41
2.60
2.74
2.74
2.53
2.13
1.57
0.94
0.34
-0.16
-0.50
-0.64
-0.64
-0.55
-0.46
-0.42
-0.43
-0.45
-0.46
-0.43
-0.35
-0.25
-0.14
-0.02
0.12
0.27
0.42
0.55
0.64
0.65
0.55
0.36
0.07
-0.26
-0.62
-0.97
-1.30
-1.60
-1.84
-2.01
-2.13
-2.20
-2.27
-2.38
-2.54
-2.75
-2.98
-3.20
-3.33
-3.35
-3.20
-2.85
-2.29
-1.57
-0.80
-0.09
0.46
0.84
1.09
1.29
1.53
1.85
2.22
2.56
2.79
2.86
2.80
2.68
2.59
2.59
2.65
2.72
2.71
2.57
2.31
2.02
1.78
1.64
1.58
1.55
1.46
1.28
1.01
0.71
0.44
0.25
0.11
0.01
-0.07
-0.10
-0.06
0.09
0.35
0.68
1.02
1.32
1.53
1.59
1.51
1.28
0.93
0.50
0.07
-0.30
-0.57
-0.70
-0.71
-0.63
-0.52
-0.42
-0.35
-0.30
-0.26
-0.21
-0.13
-0.02
0.07
0.10
0.03
-0.16
-0.51
-0.99
-1.54
-2.08
-2.47
-2.62
-2.48
-2.14
-1.76
-1.56
-1.68
-2.12
-2.79
-3.50
-4.10
-4.48
-4.63
-4.58
-4.37
-3.98
-3.40
-2.61
-1.64
-0.57
0.47
1.37
2.04
2.42
2.53
2.44
2.27
2.13
2.11
2.20
2.35
2.47
2.50
2.43
2.30
2.11
1.87
1.57
1.23
0.95
0.84
0.97
1.33
1.76
2.06
2.09
1.82
1.38
0.95
0.67
0.59
0.63
0.68
0.66
0.53
0.34
0.12
-0.05
-0.16
-0.22
-0.24
-0.26
-0.32
-0.45
-0.61
-0.70
-0.61
-0.29
0.22
0.76
1.15
1.24
1.01
0.61
0.17
-0.14
-0.31
-0.36
-0.38
-0.43
-0.51
-0.64
-0.78
-0.94
-1.11
-1.32
-1.59
-1.95
-2.38
-2.84
-3.25
-3.55
-3.72
-3.81
-3.91
-4.03
-4.10
-3.90
-3.31
-2.31
-1.10
-0.01
0.67
0.85
0.68
0.40
0.25
0.32
0.52
0.74
0.85
0.83
0.75
0.69
0.72
0.82
0.99
1.19
1.42
1.68
1.94
2.23
2.52
2.81
3.09
3.35
3.56
3.67
3.62
3.34
2.85
2.21
1.57
1.06
0.75
0.62
0.56
0.46
0.28
0.05
-0.13
-0.18
-0.06
0.19
0.51
0.81
1.07
1.25
1.34
1.30
1.08
0.70
0.18
-0.37
-0.87
-1.26
-1.49
-1.61
-1.67
-1.70
-1.72
-1.73
-1.74
-1.81
-1.94
-2.13
-2.28
-2.33
-2.24
-2.03
-1.83
-1.75
-1.86
-2.19
-2.66
-3.21
-3.73
-4.17
-4.41
-4.39
-4.08
-3.48
-2.69
-1.85
-1.10
-0.52
-0.09
0.25
0.52
0.74
0.85
0.81
0.66
0.53
0.58
0.95
1.64
2.49
3.24
3.68
3.67
3.30
2.75
2.25
1.97
1.97
2.16
2.40
2.55
2.49
2.19
1.70
1.09
0.52
0.17
0.15
0.49
1.09
1.74
2.20
2.32
2.09
1.64
1.19
0.93
0.97
1.29
1.74
2.21
2.54
2.64
2.46
2.01
1.34
0.57
-0.15
-0.69
-0.98
-0.97
-0.73
-0.35
0.03
0.25
0.19
-0.13
-0.61
-1.06
-1.36
-1.41
-1.25
-0.98
-0.69
-0.46
-0.31
-0.31
-0.49
-0.93
-1.57
-2.29
-2.90
-3.26
-3.35
-3.27
-3.20
-3.24
-3.42
-3.65
-3.82
-3.87
-3.85
-3.80
-3.74
-3.64
-3.39
-2.96
-2.36
-1.73
-1.20
-0.87
-0.74
-0.71
-0.68
-0.61
-0.53
-0.55
-0.74
-1.02
-1.25
-1.22
-0.83
-0.13
0.69
1.36
1.67
1.59
1.21
0.80
0.60
0.80
1.44
2.41
3.50
4.51
5.23
5.54
5.42
4.90
4.06
3.06
2.11
1.44
1.25
1.61
2.44
3.53
4.61
5.49
6.06
6.33
6.35
6.12
5.63
4.89
3.95
2.98
2.14
1.55
1.21
1.01
0.80
0.47
0.03
-0.43
-0.80
-1.02
-1.12
-1.20
-1.37
-1.63
-1.88
-2.00
-1.93
-1.72
-1.50
-1.41
-1.50
-1.73
-2.05
-2.43
-2.89
-3.43
-4.01
-4.54
-4.90
-5.07
-5.14
-5.24
-5.46
-5.72
-5.83
-5.60
-4.96
-4.05
-3.12
-2.34
-1.79
-1.37
-0.94
-0.43
0.10
0.56
0.88
1.11
1.37
1.73
2.18
2.56
2.70
2.46
1.90
1.25
0.77
0.61
0.73
0.98
1.16
1.15
0.99
0.79
0.69
0.71
0.82
0.93
0.98
1.00
1.04
1.12
1.20
1.16
0.96
0.65
0.37
0.29
0.50
0.93
1.41
1.73
1.78
1.55
1.17
0.82
0.64
0.70
0.94
1.24
1.46
1.51
1.37
1.10
0.75
0.36
-0.08
-0.60
-1.19
-1.76
-2.20
-2.40
-2.32
-2.00
-1.58
-1.18
-0.96
-0.97
-1.23
-1.63
-2.02
-2.21
-2.11
-1.79
-1.44
-1.33
-1.63
-2.31
-3.14
-3.81
-4.07
-3.84
-3.22
-2.39
-1.53
-0.75
-0.11
0.35
0.61
0.64
0.50
0.28
0.09
0.03
0.11
0.26
0.36
0.39
0.35
0.37
0.54
0.91
1.42
1.96
2.44
2.75
2.93
3.00
3.05
3.16
3.40
3.73
4.08
4.29
4.25
3.89
3.27
2.50
1.76
1.18
0.81
0.70
0.80
1.10
1.50
1.88
2.11
2.09
1.82
1.40
0.97
0.61
0.34
0.10
-0.14
-0.35
-0.44
-0.37
-0.18
0.00
0.01
-0.23
-0.66
-1.09
-1.38
-1.44
-1.35
-1.23
-1.19
-1.26
-1.39
-1.49
-1.54
-1.59
-1.69
-1.91
-2.26
-2.67
-3.08
-3.46
-3.79
-4.10
-4.36
-4.51
-4.44
-4.07
-3.39
-2.51
-1.61
-0.87
-0.36
-0.09
0.05
0.16
0.30
0.50
0.69
0.84
0.95
1.04
1.14
1.29
1.48
1.66
1.76
1.74
1.57
1.31
1.06
0.91
0.93
1.11
1.36
1.57
1.62
1.51
1.31
1.11
1.02
1.07
1.23
1.38
1.44
1.35
1.14
0.90
0.75
0.77
0.93
1.14
1.28
1.26
1.02
0.62
0.13
-0.36
-0.79
-1.10
-1.26
-1.28
-1.14
-0.90
-0.61
-0.34
-0.17
-0.16
-0.37
-0.79
-1.39
-2.06
-2.66
-3.06
-3.20
-3.14
-2.98
-2.90
-3.02
-3.38
-3.93
-4.49
-4.87
-4.89
-4.45
-3.59
-2.42
-1.13
0.11
1.15
1.91
2.33
2.44
2.27
1.92
1.52
1.19
1.01
1.07
1.35
1.82
2.36
2.84
3.08
2.99
2.54
1.88
1.20
0.72
0.57
0.77
1.22
1.72
2.14
2.36
2.36
2.22
2.00
1.77
1.58
1.42
1.29
1.16
1.02
0.84
0.64
0.43
0.25
0.11
0.03
-0.05
-0.18
-0.38
-0.62
-0.82
-0.88
-0.79
-0.59
-0.38
-0.26
-0.29
-0.44
-0.70
-0.97
-1.18
-1.24
-1.12
-0.88
-0.57
-0.34
-0.22
-0.24
-0.32
-0.41
-0.51
-0.66
-0.91
-1.24
-1.55
-1.73
-1.73
-1.59
-1.47
-1.48
-1.65
-1.97
-2.36
-2.78
-3.21
-3.60
-3.91
-4.04
-3.90
-3.45
-2.75
-1.94
-1.18
-0.59
-0.22
0.01
0.24
0.56
1.02
1.55
2.04
2.38
2.51
2.46
2.29
2.08
1.90
1.82
1.86
2.03
2.32
2.64
2.91
3.04
2.99
2.82
2.61
2.42
2.27
2.13
1.92
1.63
1.26
0.91
0.68
0.63
0.77
1.03
1.32
1.53
1.60
1.55
1.42
1.26
1.16
1.11
1.10
1.07
0.98
0.83
0.59
0.32
0.02
-0.28
-0.56
-0.79
-0.93
-0.93
-0.78
-0.54
-0.31
-0.21
-0.30
-0.52
-0.77
-0.95
-1.02
-1.01
-0.97
-0.99
-1.08
-1.24
-1.46
-1.78
-2.24
-2.89
-3.67
-4.44
-4.99
-5.17
-4.90
-4.30
-3.51
-2.76
-2.14
-1.67
-1.31
-0.92
-0.44
0.13
0.71
1.21
1.52
1.60
1.51
1.34
1.21
1.21
1.37
1.63
1.90
2.09
2.18
2.20
2.20
2.18
2.11
1.98
1.79
1.60
1.52
1.58
1.78
2.03
2.18
2.13
1.86
1.43
0.95
0.55
0.25
0.08
0.03
0.07
0.20
0.44
0.73
0.97
1.08
0.98
0.71
0.34
0.01
-0.14
-0.11
0.06
0.23
0.29
0.20
-0.03
-0.31
-0.61
-0.87
-1.08
-1.22
-1.28
-1.25
-1.13
-0.98
-0.86
-0.81
-0.83
-0.84
-0.79
-0.65
-0.48
-0.42
-0.54
-0.89
-1.43
-2.09
-2.79
-3.47
-4.02
-4.38
-4.42
-4.09
-3.44
-2.61
-1.74
-0.98
-0.40
0.00
0.26
0.38
0.44
0.48
0.61
0.89
1.30
1.74
2.02
2.02
1.75
1.34
1.03
0.98
1.25
1.74
2.24
2.58
2.61
2.33
1.84
1.31
0.91
0.77
0.91
1.23
1.58
1.83
1.87
1.69
1.31
0.82
0.28
-0.22
-0.58
-0.74
-0.62
-0.26
0.22
0.69
1.00
1.12
1.10
1.04
1.03
1.06
1.11
1.11
1.02
0.88
0.73
0.59
0.46
0.28
0.03
-0.29
-0.60
-0.82
-0.91
-0.90
-0.83
-0.75
-0.68
-0.59
-0.50
-0.43
-0.45
-0.60
-0.87
-1.18
-1.44
-1.58
-1.61
-1.63
-1.78
-2.20
-2.91
-3.78
-4.59
-5.08
-5.06
-4.52
-3.59
-2.51
-1.52
-0.79
-0.34
-0.12
-0.06
-0.04
-0.03
0.06
0.28
0.67
1.22
1.83
2.32
2.54
2.41
2.00
1.47
1.04
0.89
1.04
1.42
1.83
2.12
2.17
1.99
1.65
1.25
0.89
0.60
0.41
0.27
0.21
0.20
0.23
0.30
0.40
0.52
0.67
0.82
0.94
0.92
0.73
0.33
-0.17
-0.65
-0.95
-0.97
-0.71
-0.29
0.17
0.55
0.82
0.99
1.07
1.09
1.02
0.91
0.81
0.80
0.87
0.98
0.99
0.81
0.41
-0.09
-0.52
-0.72
-0.63
-0.35
-0.07
0.00
-0.23
-0.72
-1.36
-2.03
-2.67
-3.30
-3.91
-4.45
-4.77
-4.71
-4.17
-3.17
-1.89
-0.58
0.52
1.26
1.58
1.55
1.29
0.93
0.57
0.29
0.14
0.13
0.22
0.35
0.44
0.46
0.44
0.49
0.68
1.02
1.45
1.84
2.05
1.98
1.68
1.26
0.88
0.62
0.55
0.62
0.78
0.93
1.00
0.97
0.87
0.80
0.82
0.95
1.10
1.16
1.04
0.77
0.42
0.12
-0.05
-0.12
-0.14
-0.20
-0.30
-0.42
-0.47
-0.44
-0.33
-0.23
-0.19
-0.25
-0.38
-0.52
-0.68
-0.88
-1.17
-1.57
-2.03
-2.40
-2.55
-2.40
-2.02
-1.56
-1.18
-0.99
-0.97
-1.00
-1.00
-0.98
-1.02
-1.23
-1.63
-2.11
-2.49
-2.56
-2.22
-1.55
-0.68
0.19
0.91
1.41
1.70
1.84
1.89
1.91
1.97
2.07
2.18
2.24
2.15
1.85
1.35
0.78
0.32
0.17
0.35
0.78
1.27
1.62
1.70
1.53
1.21
0.87
0.62
0.48
0.44
0.43
0.41
0.36
0.30
0.30
0.38
0.59
0.89
1.21
1.42
1.44
1.26
0.95
0.64
0.40
0.28
0.20
0.12
-0.05
-0.25
-0.45
-0.58
-0.62
-0.59
-0.51
-0.39
-0.28
-0.17
-0.12
-0.11
-0.14
-0.14
-0.09
0.02
0.13
0.18
0.12
-0.07
-0.34
-0.65
-0.96
-1.24
-1.48
-1.62
-1.66
-1.62
-1.55
-1.53
-1.65
-1.89
-2.18
-2.42
-2.50
-2.33
-1.90
-1.26
-0.57
0.00
0.32
0.35
0.19
0.00
-0.03
0.17
0.53
0.91
1.17
1.25
1.19
1.10
1.06
1.07
1.10
1.09
1.02
0.94
0.93
1.06
1.31
1.58
1.70
1.53
1.06
0.42
-0.17
-0.51
-0.50
-0.20
0.23
0.62
0.85
0.92
0.84
0.64
0.32
-0.07
-0.50
-0.82
-0.94
-0.79
-0.41
0.09
0.57
0.92
1.11
1.15
1.06
0.86
0.51
0.04
-0.50
-0.99
-1.28
-1.28
-1.04
-0.68
-0.37
-0.20
-0.17
-0.22
-0.28
-0.36
-0.52
-0.86
-1.38
-2.01
-2.61
-3.03
-3.20
-3.11
-2.83
-2.43
-1.96
-1.45
-0.92
-0.36
0.21
0.74
1.17
1.41
1.37
1.07
0.57
0.01
-0.44
-0.71
-0.82
-0.86
-0.89
-0.90
-0.78
-0.40
0.23
0.97
1.56
1.78
1.57
1.08
0.58
0.34
0.44
0.79
1.18
1.38
1.36
1.19
1.04
1.03
1.18
1.36
1.40
1.19
0.75
0.21
-0.24
-0.47
-0.46
-0.29
-0.09
0.03
0.04
-0.01
-0.03
0.02
0.19
0.43
0.66
0.76
0.63
0.23
-0.36
-1.01
-1.54
-1.78
-1.69
-1.31
-0.79
-0.31
-0.01
0.01
-0.22
-0.65
-1.15
-1.60
-1.92
-2.04
-1.99
-1.85
-1.72
-1.66
-1.69
-1.70
-1.56
-1.15
-0.45
0.39
1.12
1.50
1.41
0.96
0.37
-0.08
-0.21
0.00
0.39
0.77
1.00
1.05
0.99
0.91
0.85
0.74
0.52
0.18
-0.18
-0.35
-0.17
0.42
1.26
2.07
2.55
2.55
2.11
1.41
0.69
0.15
-0.13
-0.15
0.01
0.24
0.45
0.59
0.60
0.50
0.31
0.10
-0.06
-0.12
-0.05
0.10
0.28
0.46
0.59
0.65
0.62
0.50
0.31
0.04
-0.25
-0.51
-0.67
-0.66
-0.50
-0.27
-0.09
-0.05
-0.18
-0.40
-0.60
-0.68
-0.65
-0.57
-0.58
-0.78
-1.16
-1.67
-2.20
-2.71
-3.16
-3.54
-3.77
-3.77
-3.44
-2.75
-1.81
-0.81
0.01
0.48
0.56
0.38
0.13
0.07
0.31
0.84
1.50
2.07
2.44
2.59
2.59
2.55
2.46
2.22
1.75
1.08
0.39
-0.04
-0.03
0.43
1.07
1.58
1.76
1.58
1.18
0.77
0.45
0.24
0.10
-0.00
0.02
0.24
0.68
1.20
1.58
1.65
1.38
0.93
0.54
0.40
0.57
0.91
1.22
1.33
1.18
0.78
0.26
-0.30
-0.85
-1.34
-1.73
-1.95
-1.97
-1.78
-1.45
-1.10
-0.88
-0.86
-1.06
-1.40
-1.79
-2.20
-2.61
-3.03
-3.44
-3.76
-3.85
-3.60
-3.00
-2.14
-1.27
-0.61
-0.29
-0.22
-0.19
0.07
0.68
1.54
2.42
3.00
3.14
2.88
2.40
1.94
1.59
1.33
1.09
0.80
0.49
0.25
0.16
0.20
0.29
0.35
0.35
0.33
0.35
0.43
0.52
0.54
0.46
0.32
0.22
0.20
0.25
0.24
0.08
-0.24
-0.59
-0.78
-0.65
-0.20
0.44
1.05
1.43
1.53
1.38
1.13
0.87
0.66
0.48
0.32
0.18
0.09
0.08
0.11
0.14
0.08
-0.11
-0.41
-0.73
-0.94
-0.96
-0.71
-0.26
0.27
0.70
0.90
0.80
0.42
-0.10
-0.63
-1.07
-1.39
-1.70
-2.10
-2.64
-3.28
-3.87
-4.23
-4.26
-3.94
-3.33
-2.51
-1.58
-0.57
0.47
1.46
2.31
2.86
3.05
2.86
2.39
1.80
1.26
0.89
0.74
0.73
0.74
0.65
0.44
0.21
0.16
0.39
0.88
1.48
1.97
2.18
2.11
1.87
1.60
1.41
1.30
1.23
1.16
1.11
1.12
1.19
1.27
1.23
0.98
0.51
-0.08
-0.62
-0.95
-1.00
-0.81
-0.49
-0.19
-0.01
-0.01
-0.14
-0.33
-0.53
-0.70
-0.83
-0.91
-0.94
-0.88
-0.76
-0.61
-0.52
-0.54
-0.70
-0.95
-1.21
-1.41
-1.51
-1.52
-1.47
-1.39
-1.29
-1.24
-1.27
-1.43
-1.75
-2.16
-2.58
-2.89
-2.99
-2.87
-2.54
-2.08
-1.55
-0.93
-0.21
0.63
1.57
2.50
3.27
3.71
3.73
3.33
2.61
1.75
0.91
0.26
-0.16
-0.33
-0.27
-0.05
0.25
0.55
0.77
0.88
0.83
0.64
0.32
-0.05
-0.38
-0.56
-0.52
-0.27
0.08
0.41
0.57
0.54
0.40
0.27
0.28
0.46
0.77
1.09
1.28
1.27
1.05
0.72
0.40
0.20
0.16
0.24
0.36
0.42
0.39
0.27
0.12
0.01
-0.03
-0.04
-0.09
-0.27
-0.61
-1.05
-1.47
-1.75
-1.82
-1.72
-1.52
-1.33
-1.24
-1.28
-1.41
-1.62
-1.89
-2.22
-2.60
-2.98
-3.26
-3.34
-3.16
-2.70
-2.02
-1.23
-0.45
0.24
0.81
1.27
1.65
1.98
2.23
2.38
2.37
2.21
1.96
1.69
1.46
1.32
1.26
1.26
1.31
1.42
1.60
1.81
1.99
2.03
1.86
1.50
1.02
0.54
0.17
-0.07
-0.15
-0.14
-0.06
0.07
0.22
0.44
0.72
1.11
1.57
2.08
2.54
2.84
2.89
2.71
2.37
2.04
1.81
1.67
1.53
1.25
0.82
0.28
-0.17
-0.41
-0.40
-0.23
-0.09
-0.08
-0.21
-0.38
-0.47
-0.42
-0.28
-0.16
-0.14
-0.21
-0.33
-0.41
-0.43
-0.41
-0.42
-0.54
-0.78
-1.11
-1.43
-1.68
-1.82
-1.92
-2.03
-2.26
-2.62
-3.09
-3.57
-3.94
-4.12
-4.08
-3.80
-3.30
-2.60
-1.76
-0.85
0.01
0.72
1.21
1.44
1.42
1.21
0.89
0.56
0.37
0.38
0.61
1.01
1.45
1.79
1.94
1.88
1.66
1.34
1.03
0.83
0.83
1.06
1.50
2.05
2.54
2.85
2.88
2.61
2.12
1.51
0.90
0.38
-0.00
-0.23
-0.32
-0.28
-0.14
0.04
0.21
0.31
0.31
0.21
0.08
-0.02
-0.02
0.09
0.25
0.34
0.28
0.06
-0.27
-0.59
-0.81
-0.91
-0.93
-0.90
-0.86
-0.77
-0.65
-0.50
-0.40
-0.41
-0.57
-0.82
-1.05
-1.20
-1.25
-1.31
-1.53
-1.98
-2.63
-3.34
-3.91
-4.16
-4.01
-3.52
-2.80
-2.04
-1.40
-0.98
-0.74
-0.56
-0.33
0.04
0.52
1.00
1.34
1.49
1.50
1.49
1.56
1.74
1.96
2.14
2.19
2.14
2.01
1.91
1.89
1.91
1.93
1.89
1.72
1.45
1.13
0.85
0.67
0.61
0.62
0.61
0.53
0.38
0.25
0.19
0.25
0.39
0.52
0.57
0.50
0.33
0.11
-0.08
-0.21
-0.23
-0.17
-0.03
0.11
0.20
0.14
-0.06
-0.36
-0.66
-0.85
-0.87
-0.77
-0.64
-0.60
-0.68
-0.85
-1.01
-1.05
-0.97
-0.81
-0.67
-0.59
-0.61
-0.70
-0.84
-1.01
-1.21
-1.45
-1.69
-1.87
-1.91
-1.80
-1.55
-1.25
-1.00
-0.87
-0.93
-1.19
-1.57
-1.92
-2.10
-2.00
-1.58
-0.91
-0.09
0.72
1.39
1.81
1.96
1.85
1.58
1.27
1.02
0.90
0.88
0.91
0.92
0.92
0.95
1.08
1.30
1.60
1.90
2.13
2.29
2.36
2.31
2.12
1.79
1.41
1.11
1.05
1.29
1.76
2.28
2.61
2.61
2.30
1.82
1.36
1.06
0.94
0.93
0.93
0.86
0.71
0.50
0.26
0.01
-0.25
-0.53
-0.81
-1.05
-1.20
-1.23
-1.14
-0.98
-0.84
-0.78
-0.84
-1.01
-1.25
-1.48
-1.65
-1.65
-1.44
-1.03
-0.52
-0.07
0.15
0.03
-0.41
-1.02
-1.57
-1.92
-2.01
-1.95
-1.87
-1.88
-2.03
-2.28
-2.58
-2.88
-3.10
-3.22
-3.15
-2.84
-2.31
-1.62
-0.87
-0.18
0.37
0.74
0.97
1.05
1.04
0.93
0.78
0.64
0.55
0.59
0.79
1.11
1.47
1.77
1.94
1.96
1.87
1.73
1.63
1.59
1.60
1.64
1.69
1.72
1.73
1.69
1.58
1.40
1.17
0.95
0.80
0.79
0.89
1.07
1.24
1.32
1.29
1.12
0.86
0.58
0.33
0.16
0.10
0.11
0.12
0.05
-0.15
-0.48
-0.89
-1.27
-1.53
-1.62
-1.55
-1.40
-1.26
-1.22
-1.30
-1.48
-1.72
-1.94
-2.08
-2.09
-1.98
-1.77
-1.56
-1.46
-1.58
-1.93
-2.46
-3.02
-3.47
-3.71
-3.69
-3.44
-2.97
-2.35
-1.64
-0.94
-0.36
0.05
0.30
0.47
0.67
0.93
1.21
1.43
1.48
1.35
1.13
0.94
0.92
1.12
1.46
1.83
2.11
2.25
2.26
2.21
2.15
2.10
2.02
1.86
1.60
1.27
0.95
0.72
0.63
0.70
0.87
1.07
1.21
1.23
1.14
0.98
0.87
0.87
1.01
1.27
1.54
1.74
1.81
1.74
1.58
1.41
1.31
1.28
1.30
1.23
0.97
0.46
-0.21
-0.88
-1.33
-1.48
-1.36
-1.10
-0.86
-0.73
-0.74
-0.86
-1.04
-1.28
-1.56
-1.83
-2.06
-2.21
-2.27
-2.25
-2.19
-2.10
-1.98
-1.85
-1.76
-1.75
-1.87
-2.11
-2.42
-2.69
-2.85
-2.86
-2.69
-2.37
-1.88
-1.29
-0.65
-0.08
0.34
0.56
0.62
0.64
0.73
0.93
1.21
1.52
1.78
1.99
2.20
2.44
2.69
2.86
2.83
2.53
2.01
1.39
0.84
0.51
0.46
0.68
1.10
1.61
2.08
2.42
2.55
2.48
2.24
1.95
1.72
1.59
1.54
1.49
1.38
1.19
0.95
0.71
0.53
0.41
0.30
0.21
0.14
0.13
0.17
0.20
0.16
-0.03
-0.33
-0.65
-0.86
-0.90
-0.78
-0.61
-0.57
-0.72
-1.03
-1.41
-1.69
-1.75
-1.56
-1.15
-0.63
-0.11
0.24
0.33
0.13
-0.32
-0.86
-1.33
-1.59
-1.64
-1.58
-1.58
-1.76
-2.12
-2.56
-2.90
-3.02
-2.84
-2.41
-1.82
-1.21
-0.65
-0.22
0.06
0.20
0.24
0.22
0.15
0.05
-0.09
-0.23
-0.30
-0.22
0.03
0.38
0.66
0.74
0.59
0.32
0.13
0.20
0.58
1.17
1.76
2.18
2.34
2.23
1.95
1.59
1.22
0.90
0.71
0.66
0.81
1.09
1.42
1.68
1.78
1.67
1.36
0.92
0.46
0.09
-0.10
-0.09
0.08
0.28
0.43
0.47
0.43
0.39
0.40
0.46
0.52
0.52
0.46
0.41
0.42
0.50
0.55
0.41
-0.04
-0.75
-1.54
-2.19
-2.50
-2.47
-2.22
-1.97
-1.90
-2.06
-2.37
-2.76
-3.14
-3.45
-3.69
-3.81
-3.70
-3.30
-2.60
-1.70
-0.81
-0.10
0.32
0.45
0.45
0.47
0.59
0.78
0.93
0.91
0.70
0.37
0.05
-0.15
-0.17
-0.10
-0.02
0.02
0.03
0.11
0.37
0.87
1.59
2.41
3.15
3.64
3.76
3.50
2.97
2.34
1.77
1.42
1.27
1.25
1.24
1.17
1.03
0.83
0.58
0.29
-0.05
-0.40
-0.66
-0.74
-0.60
-0.31
0.01
0.22
0.29
0.28
0.29
0.41
0.60
0.77
0.76
0.55
0.17
-0.25
-0.54
-0.65
-0.59
-0.47
-0.38
-0.40
-0.50
-0.65
-0.77
-0.83
-0.82
-0.76
-0.69
-0.66
-0.72
-0.87
-1.13
-1.51
-1.95
-2.41
-2.83
-3.18
-3.47
-3.73
-3.99
-4.23
-4.37
-4.30
-3.94
-3.24
-2.30
-1.24
-0.22
0.64
1.27
1.67
1.85
1.79
1.54
1.18
0.87
0.79
1.04
1.61
2.35
3.02
3.39
3.38
3.05
2.59
2.16
1.85
1.64
1.47
1.30
1.19
1.20
1.38
1.67
1.93
1.98
1.77
1.34
0.85
0.49
0.37
0.46
0.69
0.92
1.04
1.02
0.89
0.69
0.49
0.30
0.14
-0.00
-0.15
-0.31
-0.47
-0.61
-0.72
-0.78
-0.83
-0.92
-1.12
-1.45
-1.82
-2.14
-2.27
-2.15
-1.80
-1.33
-0.84
-0.39
-0.03
0.22
0.36
0.35
0.21
-0.05
-0.38
-0.73
-1.07
-1.40
-1.72
-2.05
-2.44
-2.92
-3.56
-4.37
-5.29
-6.18
-6.84
-7.10
-6.90
-6.33
-5.61
-4.97
-4.60
-4.57
-4.84
-5.26
-5.68
-5.95
-6.03
-5.93
-5.81
-5.78
-5.97
-6.42
-7.04
-7.64
-7.92
-7.48
-5.96
-3.19
0.68
5.10
9.12
11.74
12.21
10.38
6.76
2.37
-1.63
-4.35
-5.41
-4.90
-3.20
-0.73
2.21
5.40
8.59
11.49
13.70
14.92
15.11
14.52
13.64
12.94
12.66
12.70
12.70
12.30
11.32
9.93
8.49
7.39
6.82
6.74
6.92
7.09
7.05
6.73
6.15
5.39
4.51
3.58
2.70
1.91
1.27
0.82
0.54
0.39
0.32
0.22
-0.00
-0.42
-1.08
-1.94
-2.95
-4.04
-5.14
-6.22
-7.23
-8.08
-8.65
-8.78
-8.38
-7.48
-6.27
-5.02
-3.95
-3.19
-2.66
-2.24
-1.78
-1.26
-0.71
-0.26
0.04
0.22
0.35
0.48
0.63
0.79
0.92
1.04
1.14
1.20
1.18
1.01
0.69
0.30
-0.03
-0.21
-0.23
-0.13
0.00
0.07
0.02
-0.15
-0.43
-0.78
-1.12
-1.34
-1.34
-1.08
-0.62
-0.08
0.40
0.74
0.92
0.99
0.96
0.82
0.55
0.13
-0.37
-0.83
-1.15
-1.27
-1.23
-1.15
-1.14
-1.28
-1.54
-1.80
-1.97
-1.97
-1.83
-1.65
-1.52
-1.49
-1.56
-1.67
-1.80
-1.90
-1.96
-1.98
-1.95
-1.86
-1.71
-1.58
-1.53
-1.64
-1.96
-2.41
-2.91
-3.30
-3.47
-3.33
-2.88
-2.21
-1.40
-0.57
0.22
0.93
1.53
1.98
2.26
2.34
2.22
1.98
1.70
1.47
1.35
1.34
1.42
1.52
1.62
1.68
1.68
1.62
1.53
1.47
1.46
1.52
1.60
1.62
1.53
1.30
0.98
0.65
0.36
0.13
-0.08
-0.32
-0.61
-0.94
-1.23
-1.42
-1.48
-1.39
-1.18
-0.90
-0.55
-0.12
0.35
0.81
1.18
1.38
1.39
1.27
1.14
1.11
1.21
1.39
1.47
1.34
0.95
0.40
-0.13
-0.50
-0.68
-0.70
-0.72
-0.83
-1.09
-1.43
-1.78
-2.05
-2.21
-2.24
-2.18
-2.07
-1.97
-1.94
-2.03
-2.28
-2.66
-3.15
-3.68
-4.15
-4.44
-4.44
-4.07
-3.37
-2.48
-1.57
-0.83
-0.33
-0.04
0.16
0.37
0.63
0.88
1.06
1.09
0.97
0.78
0.62
0.57
0.64
0.80
1.00
1.19
1.39
1.60
1.85
2.14
2.44
2.69
2.84
2.85
2.67
2.33
1.82
1.24
0.70
0.33
0.20
0.30
0.50
0.68
0.75
0.69
0.56
0.45
0.38
0.33
0.24
0.05
-0.25
-0.57
-0.84
-0.96
-0.95
-0.85
-0.76
-0.74
-0.82
-0.91
-0.95
-0.91
-0.81
-0.74
-0.79
-0.95
-1.13
-1.19
-1.08
-0.87
-0.71
-0.83
-1.33
-2.17
-3.13
-3.97
-4.42
-4.37
-3.80
-2.84
-1.67
-0.53
0.40
1.00
1.26
1.26
1.16
1.08
1.09
1.15
1.20
1.19
1.13
1.04
0.97
0.92
0.87
0.84
0.85
0.99
1.31
1.84
2.46
3.01
3.33
3.33
3.03
2.55
2.03
1.59
1.32
1.24
1.36
1.63
1.97
2.27
2.43
2.36
2.06
1.60
1.14
0.81
0.70
0.79
0.97
1.08
1.02
0.81
0.57
0.43
0.48
0.69
0.89
0.94
0.74
0.31
-0.22
-0.71
-1.06
-1.23
-1.22
-1.07
-0.82
-0.57
-0.38
-0.32
-0.40
-0.61
-0.88
-1.18
-1.50
-1.86
-2.23
-2.57
-2.74
-2.66
-2.30
-1.84
-1.52
-1.57
-2.07
-2.88
-3.72
-4.26
-4.33
-3.95
-3.27
-2.51
-1.82
-1.23
-0.72
-0.28
0.10
0.40
0.62
0.83
1.14
1.63
2.29
2.96
3.43
3.53
3.20
2.55
1.77
1.08
0.59
0.34
0.26
0.26
0.26
0.25
0.24
0.24
0.26
0.28
0.27
0.25
0.25
0.36
0.65
1.11
1.70
2.32
2.86
3.25
3.43
3.39
3.16
2.75
2.24
1.75
1.41
1.30
1.46
1.79
2.16
2.36
2.30
1.95
1.40
0.79
0.24
-0.13
-0.31
-0.35
-0.37
-0.46
-0.69
-1.09
-1.61
-2.14
-2.57
-2.84
-2.92
-2.86
-2.71
-2.52
-2.34
-2.20
-2.10
-2.04
-2.04
-2.06
-2.11
-2.17
-2.24
-2.34
-2.44
-2.55
-2.65
-2.72
-2.72
-2.64
-2.43
-2.06
-1.52
-0.83
-0.08
0.62
1.21
1.63
1.89
2.04
2.10
2.05
1.87
1.57
1.21
0.93
0.84
0.99
1.31
1.64
1.84
1.85
1.71
1.55
1.47
1.53
1.67
1.80
1.85
1.77
1.58
1.35
1.08
0.79
0.51
0.24
0.03
-0.06
-0.03
0.08
0.16
0.09
-0.17
-0.58
-1.02
-1.32
-1.35
-1.10
-0.66
-0.19
0.17
0.34
0.33
0.21
0.08
-0.01
-0.03
0.01
0.06
0.05
-0.05
-0.29
-0.63
-1.01
-1.36
-1.62
-1.76
-1.80
-1.81
-1.80
-1.79
-1.76
-1.70
-1.67
-1.71
-1.90
-2.25
-2.72
-3.19
-3.49
-3.49
-3.08
-2.31
-1.28
-0.19
0.76
1.43
1.77
1.81
1.66
1.44
1.26
1.16
1.13
1.14
1.16
1.20
1.26
1.36
1.49
1.59
1.60
1.49
1.27
1.03
0.85
0.75
0.73
0.72
0.70
0.70
0.80
1.03
1.36
1.69
1.87
1.84
1.60
1.27
0.97
0.77
0.66
0.58
0.48
0.37
0.32
0.39
0.59
0.86
1.08
1.14
0.98
0.63
0.18
-0.25
-0.58
-0.77
-0.87
-0.93
-1.01
-1.15
-1.31
-1.45
-1.48
-1.38
-1.13
-0.78
-0.39
-0.04
0.26
0.47
0.59
0.60
0.43
0.06
-0.49
-1.10
-1.57
-1.74
-1.58
-1.21
-0.92
-1.02
-1.65
-2.73
-3.97
-4.94
-5.34
-5.05
-4.19
-3.02
-1.88
-0.96
-0.38
-0.07
0.06
0.10
0.12
0.14
0.18
0.28
0.48
0.78
1.14
1.45
1.58
1.47
1.17
0.82
0.56
0.51
0.67
0.96
1.30
1.59
1.80
1.95
2.04
2.11
2.19
2.28
2.35
2.38
2.30
2.09
1.79
1.48
1.27
1.22
1.27
1.33
1.27
1.06
0.77
0.53
0.41
0.40
0.43
0.39
0.24
0.01
-0.23
-0.43
-0.59
-0.75
-0.93
-1.04
-1.01
-0.79
-0.39
0.03
0.33
0.36
0.09
-0.41
-0.99
-1.48
-1.75
-1.71
-1.40
-0.96
-0.58
-0.45
-0.67
-1.21
-1.94
-2.70
-3.37
-3.89
-4.22
-4.33
-4.17
-3.73
-3.07
-2.31
-1.60
-1.04
-0.61
-0.23
0.17
0.61
1.05
1.39
1.59
1.69
1.71
1.72
1.74
1.74
1.70
1.66
1.66
1.78
2.02
2.34
2.65
2.83
2.85
2.68
2.38
1.99
1.56
1.14
0.77
0.53
0.48
0.63
0.90
1.16
1.27
1.15
0.86
0.49
0.13
-0.23
-0.59
-0.98
-1.33
-1.46
-1.28
-0.75
-0.04
0.59
0.94
0.93
0.67
0.33
0.06
-0.09
-0.18
-0.24
-0.29
-0.25
-0.06
0.26
0.58
0.72
0.55
0.07
-0.60
-1.25
-1.73
-1.98
-2.04
-2.02
-2.01
-2.04
-2.14
-2.31
-2.55
-2.84
-3.13
-3.34
-3.38
-3.22
-2.84
-2.26
-1.55
-0.77
-0.03
0.57
0.94
1.07
0.99
0.77
0.55
0.37
0.29
0.29
0.38
0.52
0.69
0.88
1.04
1.14
1.20
1.17
1.11
1.03
0.97
0.96
1.03
1.17
1.33
1.45
1.49
1.44
1.37
1.33
1.40
1.59
1.84
2.06
2.15
2.06
1.78
1.37
0.87
0.35
-0.12
-0.45
-0.59
-0.49
-0.21
0.13
0.41
0.53
0.47
0.31
0.13
-0.00
-0.12
-0.26
-0.46
-0.66
-0.82
-0.90
-0.91
-0.94
-1.07
-1.33
-1.67
-1.99
-2.23
-2.36
-2.41
-2.43
-2.47
-2.57
-2.77
-3.06
-3.42
-3.72
-3.80
-3.52
-2.83
-1.86
-0.82
0.02
0.52
0.67
0.63
0.60
0.72
1.05
1.53
2.03
2.45
2.69
2.73
2.55
2.19
1.70
1.21
0.88
0.84
1.14
1.67
2.22
2.57
2.60
2.36
2.01
1.78
1.75
1.86
1.94
1.82
1.48
1.00
0.57
0.36
0.38
0.58
0.83
1.00
1.01
0.85
0.51
0.04
-0.49
-1.01
-1.43
-1.68
-1.68
-1.44
-1.01
-0.50
-0.08
0.11
-0.03
-0.45
-1.02
-1.53
-1.86
-1.99
-2.00
-2.02
-2.10
-2.21
-2.24
-2.09
-1.77
-1.41
-1.17
-1.24
-1.66
-2.31
-3.00
-3.50
-3.66
-3.48
-3.03
-2.42
-1.77
-1.12
-0.45
0.27
1.01
1.71
2.25
2.55
2.59
2.43
2.17
1.91
1.72
1.58
1.51
1.48
1.49
1.57
1.74
1.99
2.28
2.52
2.65
2.59
2.39
2.10
1.80
1.54
1.32
1.16
1.04
1.00
1.06
1.22
1.40
1.48
1.36
1.00
0.43
-0.19
-0.72
-1.01
-0.99
-0.68
-0.14
0.52
1.17
1.67
1.90
1.81
1.42
0.84
0.21
-0.33
-0.70
-0.89
-0.94
-0.92
-0.88
-0.84
-0.81
-0.74
-0.62
-0.44
-0.24
-0.08
-0.04
-0.15
-0.40
-0.71
-0.99
-1.15
-1.25
-1.37
-1.67
-2.22
-2.97
-3.76
-4.40
-4.72
-4.71
-4.49
-4.14
-3.74
-3.27
-2.64
-1.84
-0.96
-0.13
0.48
0.83
0.99
1.13
1.34
1.66
2.01
2.29
2.45
2.51
2.50
2.48
2.46
2.40
2.29
2.17
2.10
2.12
2.20
2.25
2.20
1.99
1.64
1.27
0.96
0.74
0.64
0.59
0.58
0.61
0.71
0.85
1.00
1.05
0.91
0.60
0.23
-0.03
-0.09
0.07
0.28
0.40
0.29
-0.00
-0.34
-0.55
-0.55
-0.36
-0.11
0.08
0.13
0.06
-0.04
-0.13
-0.20
-0.29
-0.43
-0.64
-0.87
-1.01
-1.01
-0.88
-0.70
-0.68
-0.98
-1.68
-2.69
-3.81
-4.73
-5.23
-5.26
-4.90
-4.31
-3.65
-2.95
-2.21
-1.41
-0.58
0.18
0.76
1.14
1.35
1.52
1.70
1.88
1.97
1.86
1.55
1.15
0.85
0.75
0.90
1.20
1.55
1.84
2.06
2.20
2.25
2.17
1.91
1.49
1.04
0.75
0.78
1.18
1.81
2.42
2.74
2.62
2.12
1.45
0.87
0.55
0.53
0.68
0.85
0.90
0.78
0.51
0.18
-0.12
-0.33
-0.44
-0.45
-0.43
-0.43
-0.50
-0.63
-0.80
-0.97
-1.09
-1.18
-1.30
-1.52
-1.85
-2.30
-2.78
-3.24
-3.57
-3.67
-3.49
-3.04
-2.38
-1.71
-1.19
-0.96
-1.07
-1.39
-1.75
-2.00
-2.03
-1.84
-1.51
-1.11
-0.73
-0.42
-0.19
-0.03
0.12
0.33
0.63
1.02
1.43
1.79
2.02
2.08
1.98
1.75
1.43
1.08
0.79
0.66
0.76
1.08
1.51
1.89
2.11
2.14
2.02
1.82
1.55
1.21
0.82
0.48
0.32
0.48
0.94
1.59
2.18
2.51
2.52
2.27
1.90
1.52
1.17
0.86
0.57
0.28
0.02
-0.23
-0.44
-0.61
-0.68
-0.59
-0.33
0.05
0.44
0.70
0.74
0.57
0.29
0.04
-0.10
-0.13
-0.13
-0.22
-0.46
-0.86
-1.37
-1.87
-2.24
-2.40
-2.36
-2.20
-2.02
-1.95
-2.04
-2.27
-2.54
-2.74
-2.79
-2.67
-2.38
-1.97
-1.49
-0.99
-0.51
-0.07
0.30
0.60
0.87
1.15
1.46
1.76
2.00
2.11
2.07
1.87
1.59
1.27
0.98
0.77
0.67
0.69
0.82
1.05
1.36
1.71
2.04
2.26
2.29
2.10
1.70
1.18
0.66
0.26
0.04
-0.00
0.04
0.08
0.02
-0.10
-0.21
-0.20
-0.02
0.26
0.49
0.51
0.23
-0.28
-0.79
-1.11
-1.14
-0.95
-0.73
-0.67
-0.80
-1.01
-1.13
-1.09
-0.94
-0.87
-1.08
-1.59
-2.28
-2.90
-3.27
-3.35
-3.26
-3.19
-3.26
-3.50
-3.73
-3.75
-3.40
-2.65
-1.61
-0.48
0.53
1.32
1.86
2.21
2.42
2.56
2.66
2.73
2.77
2.79
2.80
2.78
2.67
2.45
2.13
1.79
1.54
1.51
1.72
2.12
2.60
3.01
3.26
3.32
3.23
3.00
2.67
2.23
1.69
1.09
0.51
0.00
-0.43
-0.78
-1.07
-1.29
-1.44
-1.50
-1.50
-1.49
-1.53
-1.62
-1.71
-1.72
-1.58
-1.31
-0.98
-0.70
-0.51
-0.39
-0.28
-0.11
0.10
0.28
0.35
0.29
0.15
0.07
0.11
0.28
0.44
0.41
0.06
-0.61
-1.45
-2.22
-2.74
-2.88
-2.72
-2.37
-2.04
-1.87
-1.96
-2.34
-2.96
-3.67
-4.29
-4.62
-4.51
-3.95
-3.05
-1.98
-0.97
-0.15
0.41
0.71
0.86
0.93
1.03
1.21
1.50
1.85
2.20
2.45
2.55
2.51
2.37
2.21
2.07
1.98
1.91
1.88
1.87
1.93
2.04
2.17
2.23
2.10
1.72
1.08
0.31
-0.41
-0.88
-1.00
-0.81
-0.42
-0.00
0.34
0.57
0.69
0.73
0.71
0.61
0.45
0.27
0.14
0.15
0.39
0.83
1.39
1.95
2.38
2.59
2.56
2.32
1.95
1.51
1.07
0.64
0.25
-0.07
-0.27
-0.31
-0.20
0.01
0.21
0.32
0.30
0.17
-0.01
-0.18
-0.36
-0.63
-1.09
-1.78
-2.62
-3.50
-4.24
-4.73
-4.93
-4.85
-4.53
-4.04
-3.43
-2.77
-2.13
-1.55
-1.06
-0.65
-0.33
-0.08
0.05
0.04
-0.07
-0.24
-0.37
-0.43
-0.40
-0.31
-0.21
-0.10
-0.01
0.09
0.19
0.28
0.39
0.56
0.82
1.18
1.66
2.21
2.80
3.33
3.74
3.94
3.87
3.54
3.00
2.36
1.78
1.39
1.29
1.44
1.77
2.07
2.21
2.05
1.61
1.00
0.39
-0.09
-0.38
-0.51
-0.60
-0.71
-0.83
-0.91
-0.89
-0.74
-0.53
-0.33
-0.25
-0.32
-0.51
-0.81
-1.15
-1.48
-1.78
-2.02
-2.22
-2.42
-2.65
-2.91
-3.16
-3.32
-3.34
-3.18
-2.84
-2.32
-1.65
-0.85
0.00
0.75
1.23
1.32
1.04
0.56
0.11
-0.09
0.04
0.42
0.89
1.26
1.43
1.36
1.12
0.84
0.64
0.68
1.01
1.60
2.28
2.83
3.04
2.84
2.33
1.74
1.29
1.08
1.11
1.26
1.44
1.61
1.75
1.86
1.88
1.76
1.46
1.06
0.70
0.56
0.72
1.15
1.68
2.12
2.32
2.24
1.93
1.44
0.87
0.24
-0.39
-0.98
-1.45
-1.73
-1.78
-1.67
-1.54
-1.56
-1.86
-2.44
-3.22
-4.00
-4.61
-4.92
-4.90
-4.60
-4.10
-3.54
-3.05
-2.71
-2.57
-2.63
-2.86
-3.14
-3.34
-3.34
-3.09
-2.63
-2.10
-1.71
-1.61
-1.80
-2.17
-2.50
-2.55
-2.23
-1.62
-0.86
-0.13
0.46
0.91
1.30
1.65
1.94
2.17
2.33
2.50
2.73
3.00
3.23
3.28
3.08
2.65
2.11
1.59
1.22
1.01
0.98
1.10
1.38
1.81
2.30
2.70
2.85
2.65
2.15
1.50
0.93
0.61
0.59
0.77
1.02
1.16
1.12
0.94
0.74
0.61
0.59
0.60
0.58
0.45
0.25
0.09
0.04
0.13
0.30
0.45
0.53
0.52
0.50
0.50
0.55
0.59
0.58
0.46
0.23
-0.08
-0.39
-0.65
-0.81
-0.85
-0.82
-0.75
-0.70
-0.77
-0.97
-1.30
-1.72
-2.11
-2.37
-2.36
-2.02
-1.35
-0.44
0.49
1.19
1.44
1.14
0.33
-0.79
-1.93
-2.87
-3.42
-3.54
-3.28
-2.76
-2.11
-1.50
-1.08
-0.95
-1.14
-1.53
-1.92
-2.05
-1.80
-1.19
-0.41
0.24
0.60
0.64
0.54
0.51
0.74
1.23
1.86
2.42
2.73
2.76
2.58
2.33
2.15
2.08
2.09
2.09
2.00
1.80
1.54
1.33
1.27
1.38
1.57
1.70
1.61
1.25
0.67
0.04
-0.44
-0.64
-0.52
-0.18
0.23
0.56
0.72
0.68
0.50
0.26
0.04
-0.13
-0.21
-0.23
-0.18
-0.13
-0.12
-0.24
-0.50
-0.90
-1.35
-1.74
-1.99
-2.05
-1.94
-1.75
-1.56
-1.43
-1.38
-1.38
-1.39
-1.41
-1.44
-1.53
-1.70
-1.97
-2.33
-2.70
-3.02
-3.18
-3.13
-2.89
-2.49
-2.00
-1.47
-0.92
-0.41
0.01
0.26
0.28
0.10
-0.15
-0.33
-0.25
0.12
0.73
1.41
1.95
2.25
2.30
2.22
2.15
2.18
2.34
2.55
2.69
2.68
2.50
2.19
1.78
1.33
0.85
0.38
-0.02
-0.25
-0.24
-0.00
0.37
0.70
0.81
0.60
0.12
-0.49
-1.02
-1.30
-1.25
-0.89
-0.33
0.24
0.66
0.80
0.66
0.32
-0.05
-0.30
-0.38
-0.30
-0.19
-0.14
-0.14
-0.15
-0.08
0.12
0.40
0.67
0.83
0.85
0.73
0.54
0.34
0.15
-0.04
-0.24
-0.46
-0.67
-0.83
-0.89
-0.82
-0.64
-0.42
-0.27
-0.23
-0.28
-0.34
-0.29
-0.16
-0.06
-0.19
-0.70
-1.56
-2.59
-3.49
-4.00
-4.03
-3.66
-3.06
-2.44
-1.92
-1.50
-1.14
-0.83
-0.58
-0.42
-0.33
-0.27
-0.14
0.10
0.44
0.82
1.14
1.32
1.35
1.30
1.27
1.34
1.54
1.84
2.15
2.40
2.54
2.57
2.56
2.60
2.76
3.04
3.36
3.60
3.66
3.48
3.13
2.72
2.37
2.11
1.94
1.76
1.47
1.06
0.52
-0.06
-0.63
-1.11
-1.40
-1.47
-1.31
-0.96
-0.56
-0.23
-0.10
-0.22
-0.57
-1.06
-1.57
-1.96
-2.13
-2.06
-1.78
-1.40
-1.06
-0.89
-1.00
-1.34
-1.79
-2.15
-2.29
-2.16
-1.82
-1.43
-1.13
-0.98
-0.96
-1.03
-1.15
-1.30
-1.45
-1.59
-1.71
-1.76
-1.78
-1.79
-1.83
-1.88
-1.89
-1.79
-1.58
-1.29
-1.00
-0.73
-0.43
-0.03
0.47
1.01
1.41
1.55
1.43
1.17
0.96
0.94
1.08
1.25
1.31
1.22
1.07
1.01
1.18
1.57
2.07
2.48
2.66
2.56
2.25
1.89
1.64
1.58
1.68
1.83
1.91
1.83
1.57
1.23
0.93
0.76
0.74
0.79
0.82
0.73
0.55
0.33
0.18
0.17
0.32
0.57
0.84
1.03
1.07
0.97
0.75
0.50
0.27
0.12
0.06
0.08
0.14
0.24
0.32
0.33
0.22
-0.09
-0.58
-1.14
-1.62
-1.83
-1.69
-1.25
-0.70
-0.23
0.02
0.04
-0.12
-0.37
-0.69
-1.09
-1.55
-2.05
-2.52
-2.92
-3.26
-3.61
-4.00
-4.33
-4.44
-4.17
-3.47
-2.45
-1.36
-0.44
0.18
0.51
0.66
0.79
0.97
1.21
1.45
1.63
1.72
1.69
1.54
1.32
1.09
0.97
1.02
1.28
1.70
2.16
2.53
2.71
2.62
2.28
1.76
1.18
0.67
0.32
0.18
0.19
0.26
0.30
0.27
0.21
0.19
0.29
0.53
0.86
1.14
1.27
1.20
0.98
0.74
0.61
0.66
0.83
0.99
1.03
0.91
0.67
0.41
0.19
-0.02
-0.27
-0.59
-0.93
-1.17
-1.22
-1.05
-0.75
-0.48
-0.37
-0.48
-0.76
-1.12
-1.44
-1.66
-1.77
-1.76
-1.69
-1.60
-1.58
-1.67
-1.94
-2.39
-2.96
-3.48
-3.77
-3.69
-3.17
-2.32
-1.30
-0.33
0.45
1.02
1.39
1.61
1.66
1.51
1.13
0.58
0.03
-0.35
-0.43
-0.20
0.22
0.69
1.08
1.36
1.55
1.70
1.82
1.83
1.72
1.48
1.21
1.05
1.09
1.37
1.76
2.12
2.27
2.16
1.81
1.35
0.92
0.64
0.52
0.54
0.63
0.72
0.77
0.76
0.68
0.52
0.25
-0.10
-0.44
-0.67
-0.69
-0.48
-0.15
0.13
0.22
0.08
-0.24
-0.59
-0.87
-1.07
-1.23
-1.40
-1.54
-1.58
-1.42
-1.03
-0.54
-0.14
-0.02
-0.22
-0.67
-1.19
-1.61
-1.86
-1.95
-1.93
-1.80
-1.55
-1.21
-0.83
-0.50
-0.33
-0.29
-0.32
-0.25
0.02
0.48
1.01
1.41
1.54
1.36
1.00
0.64
0.45
0.49
0.66
0.83
0.89
0.86
0.82
0.90
1.12
1.40
1.60
1.62
1.47
1.25
1.07
1.01
1.04
1.03
0.93
0.71
0.45
0.24
0.15
0.19
0.29
0.38
0.43
0.40
0.37
0.36
0.41
0.47
0.49
0.42
0.26
0.03
-0.18
-0.31
-0.34
-0.28
-0.17
-0.06
-0.01
-0.05
-0.18
-0.40
-0.64
-0.82
-0.84
-0.67
-0.38
-0.04
0.25
0.42
0.49
0.47
0.33
0.07
-0.34
-0.86
-1.38
-1.76
-1.90
-1.79
-1.53
-1.26
-1.13
-1.17
-1.37
-1.62
-1.85
-2.02
-2.10
-2.10
-2.00
-1.84
-1.65
-1.48
-1.39
-1.34
-1.30
-1.18
-0.94
-0.59
-0.18
0.18
0.40
0.45
0.35
0.15
-0.06
-0.23
-0.30
-0.29
-0.20
-0.06
0.11
0.28
0.47
0.67
0.86
1.04
1.23
1.45
1.69
1.91
2.01
1.92
1.61
1.16
0.72
0.41
0.32
0.44
0.70
0.99
1.23
1.39
1.49
1.58
1.70
1.88
2.04
2.14
2.07
1.80
1.34
0.78
0.21
-0.30
-0.69
-0.95
-1.09
-1.11
-1.06
-1.01
-1.05
-1.24
-1.55
-1.85
-1.98
-1.83
-1.43
-0.97
-0.73
-0.85
-1.33
-1.95
-2.42
-2.55
-2.33
-1.95
-1.69
-1.74
-2.17
-2.83
-3.52
-4.03
-4.23
-4.02
-3.40
-2.41
-1.16
0.16
1.30
2.04
2.26
2.02
1.52
1.04
0.80
0.97
1.56
2.47
3.48
4.39
5.07
5.47
5.62
5.60
5.47
5.27
4.98
4.61
4.19
3.79
3.43
3.07
2.63
2.06
1.39
0.75
0.29
0.09
0.06
-0.00
-0.29
-0.86
-1.60
-2.26
-2.64
-2.65
-2.40
-2.07
-1.83
-1.70
-1.66
-1.65
-1.65
-1.68
-1.76
-1.85
-1.91
-1.86
-1.72
-1.53
-1.38
-1.26
-1.17
-1.10
-1.05
-1.10
-1.27
-1.49
-1.58
-1.39
-0.88
-0.21
0.33
0.47
0.13
-0.55
-1.29
-1.86
-2.11
-2.07
-1.86
-1.54
-1.18
-0.73
-0.20
0.39
0.95
1.37
1.59
1.63
1.56
1.47
1.43
1.44
1.47
1.45
1.32
1.10
0.79
0.46
0.10
-0.31
-0.79
-1.29
-1.67
-1.75
-1.40
-0.64
0.36
1.32
1.98
2.20
2.01
1.57
1.09
0.70
0.41
0.21
0.06
-0.01
0.05
0.27
0.54
0.71
0.63
0.26
-0.34
-0.97
-1.45
-1.65
-1.57
-1.27
-0.85
-0.39
0.00
0.28
0.37
0.27
0.01
-0.28
-0.48
-0.47
-0.25
0.09
0.38
0.50
0.42
0.15
-0.14
-0.38
-0.51
-0.59
-0.66
-0.74
-0.80
-0.79
-0.67
-0.49
-0.40
-0.56
-1.03
-1.78
-2.64
-3.39
-3.81
-3.79
-3.40
-2.74
-1.95
-1.17
-0.43
0.22
0.74
1.04
1.07
0.83
0.44
0.08
-0.07
0.07
0.45
0.91
1.31
1.59
1.79
1.95
2.10
2.16
2.07
1.80
1.42
1.08
0.93
1.02
1.28
1.52
1.61
1.52
1.30
1.09
0.97
0.95
0.96
0.96
0.90
0.78
0.65
0.53
0.46
0.44
0.44
0.41
0.30
0.09
-0.18
-0.43
-0.54
-0.45
-0.20
0.14
0.45
0.63
0.63
0.47
0.16
-0.27
-0.75
-1.22
-1.57
-1.74
-1.73
-1.59
-1.36
-1.06
-0.68
-0.23
0.25
0.64
0.83
0.76
0.47
0.09
-0.24
-0.44
-0.50
-0.49
-0.47
-0.46
-0.41
-0.32
-0.20
-0.16
-0.26
-0.53
-0.87
-1.15
-1.25
-1.12
-0.81
-0.45
-0.18
-0.10
-0.20
-0.46
-0.75
-0.99
-1.09
-0.97
-0.65
-0.18
0.32
0.75
1.01
1.08
1.00
0.83
0.66
0.54
0.51
0.56
0.66
0.78
0.90
1.03
1.17
1.30
1.37
1.33
1.14
0.85
0.54
0.34
0.30
0.44
0.64
0.76
0.69
0.44
0.07
-0.27
-0.45
-0.42
-0.21
0.07
0.32
0.47
0.48
0.39
0.27
0.16
0.05
-0.06
-0.19
-0.37
-0.60
-0.82
-0.97
-0.99
-0.85
-0.60
-0.32
-0.12
-0.10
-0.27
-0.60
-0.96
-1.26
-1.44
-1.50
-1.49
-1.47
-1.47
-1.45
-1.42
-1.39
-1.46
-1.65
-2.00
-2.41
-2.70
-2.71
-2.36
-1.67
-0.78
0.13
0.91
1.45
1.70
1.67
1.39
0.99
0.59
0.36
0.34
0.53
0.80
0.97
0.95
0.72
0.36
0.01
-0.16
-0.05
0.32
0.88
1.46
1.90
2.04
1.90
1.56
1.20
0.94
0.83
0.81
0.76
0.63
0.41
0.21
0.12
0.18
0.34
0.49
0.55
0.52
0.48
0.53
0.73
1.05
1.37
1.58
1.59
1.35
0.93
0.46
0.07
-0.13
-0.10
0.05
0.16
0.08
-0.24
-0.70
-1.11
-1.25
-1.06
-0.62
-0.17
0.06
-0.06
-0.49
-1.04
-1.50
-1.74
-1.72
-1.53
-1.31
-1.17
-1.18
-1.29
-1.43
-1.52
-1.51
-1.41
-1.27
-1.18
-1.19
-1.35
-1.63
-1.95
-2.22
-2.33
-2.24
-1.92
-1.46
-0.92
-0.38
0.11
0.52
0.81
0.99
1.07
1.10
1.17
1.31
1.53
1.75
1.90
1.91
1.79
1.58
1.36
1.16
1.06
1.06
1.21
1.52
1.98
2.48
2.89
3.04
2.87
2.41
1.82
1.28
0.95
0.89
1.02
1.20
1.30
1.22
0.97
0.62
0.27
0.03
-0.06
0.02
0.24
0.56
0.86
1.07
1.09
0.93
0.66
0.39
0.25
0.28
0.44
0.58
0.55
0.29
-0.14
-0.62
-1.01
-1.24
-1.34
-1.42
-1.57
-1.79
-1.99
-2.04
-1.88
-1.55
-1.20
-0.99
-0.99
-1.15
-1.34
-1.39
-1.29
-1.11
-1.00
-1.13
-1.52
-2.10
-2.70
-3.13
-3.28
-3.19
-2.95
-2.66
-2.35
-1.99
-1.50
-0.88
-0.19
0.50
1.10
1.60
2.02
2.37
2.60
2.61
2.35
1.83
1.17
0.54
0.11
-0.03
0.07
0.37
0.73
1.04
1.18
1.11
0.88
0.60
0.45
0.49
0.72
0.98
1.15
1.13
0.95
0.74
0.62
0.66
0.83
1.01
1.08
0.97
0.72
0.43
0.23
0.21
0.35
0.54
0.67
0.65
0.51
0.34
0.23
0.24
0.27
0.21
-0.01
-0.37
-0.75
-1.01
-1.10
-1.04
-0.96
-0.93
-0.96
-1.05
-1.16
-1.29
-1.46
-1.67
-1.86
-1.95
-1.86
-1.64
-1.39
-1.26
-1.37
-1.70
-2.17
-2.61
-2.88
-2.87
-2.55
-1.95
-1.22
-0.47
0.14
0.51
0.63
0.56
0.40
0.24
0.13
0.08
0.07
0.08
0.11
0.15
0.20
0.27
0.40
0.64
1.00
1.43
1.77
1.93
1.83
1.56
1.26
1.12
1.19
1.41
1.61
1.66
1.53
1.32
1.18
1.22
1.45
1.72
1.90
1.91
1.77
1.60
1.48
1.46
1.47
1.45
1.32
1.09
0.83
0.63
0.53
0.54
0.61
0.66
0.62
0.48
0.26
-0.01
-0.27
-0.48
-0.61
-0.68
-0.70
-0.72
-0.77
-0.86
-0.98
-1.08
-1.11
-1.06
-0.97
-0.88
-0.88
-0.97
-1.11
-1.20
-1.18
-1.08
-1.00
-1.06
-1.34
-1.86
-2.53
-3.22
-3.77
-4.06
-3.97
-3.52
-2.80
-1.95
-1.16
-0.54
-0.11
0.24
0.62
1.12
1.66
2.16
2.49
2.59
2.52
2.37
2.21
2.05
1.87
1.68
1.49
1.40
1.44
1.61
1.84
2.05
2.15
2.12
2.02
1.90
1.79
1.67
1.50
1.23
0.89
0.54
0.26
0.10
0.01
-0.10
-0.30
-0.55
-0.73
-0.70
-0.34
0.28
0.97
1.48
1.66
1.50
1.14
0.81
0.63
0.62
0.66
0.59
0.31
-0.21
-0.85
-1.45
-1.88
-2.05
-2.01
-1.85
-1.67
-1.54
-1.41
-1.18
-0.78
-0.18
0.48
1.02
1.21
0.98
0.38
-0.39
-1.12
-1.65
-1.95
-2.11
-2.26
-2.50
-2.83
-3.20
-3.52
-3.71
-3.72
-3.51
-3.05
-2.32
-1.38
-0.35
0.57
1.22
1.48
1.37
1.04
0.69
0.49
0.50
0.71
0.99
1.26
1.46
1.54
1.53
1.41
1.24
1.06
0.91
0.81
0.80
0.88
1.06
1.32
1.63
1.88
1.94
1.73
1.25
0.63
0.10
-0.12
0.07
0.59
1.21
1.69
1.84
1.63
1.16
0.57
0.03
-0.36
-0.53
-0.48
-0.25
0.05
0.32
0.44
0.35
0.11
-0.19
-0.44
-0.59
-0.63
-0.61
-0.57
-0.53
-0.45
-0.35
-0.23
-0.19
-0.29
-0.58
-1.01
-1.45
-1.74
-1.77
-1.52
-1.11
-0.68
-0.39
-0.31
-0.41
-0.63
-0.89
-1.17
-1.51
-1.91
-2.33
-2.68
-2.88
-2.87
-2.69
-2.43
-2.14
-1.84
-1.49
-1.05
-0.50
0.07
0.56
0.86
0.91
0.78
0.57
0.45
0.55
0.89
1.39
1.94
2.37
2.57
2.55
2.38
2.19
2.04
1.94
1.86
1.74
1.58
1.44
1.45
1.65
2.00
2.39
2.71
2.85
2.80
2.60
2.36
2.14
1.97
1.81
1.58
1.22
0.72
0.13
-0.42
-0.79
-0.92
-0.83
-0.66
-0.59
-0.73
-1.06
-1.43
-1.68
-1.68
-1.41
-0.99
-0.56
-0.26
-0.15
-0.23
-0.45
-0.77
-1.15
-1.48
-1.67
-1.62
-1.32
-0.90
-0.54
-0.41
-0.57
-0.95
-1.37
-1.68
-1.79
-1.81
-1.87
-2.07
-2.41
-2.77
-2.96
-2.82
-2.37
-1.71
-1.05
-0.55
-0.28
-0.20
-0.17
-0.05
0.25
0.71
1.22
1.65
1.92
2.02
2.01
1.96
1.94
1.98
2.02
2.00
1.86
1.62
1.32
1.11
1.10
1.34
1.75
2.15
2.34
2.17
1.63
0.88
0.15
-0.32
-0.42
-0.18
0.23
0.63
0.85
0.84
0.66
0.40
0.18
0.04
-0.02
-0.08
-0.15
-0.24
-0.30
-0.26
-0.16
-0.03
0.03
-0.01
-0.13
-0.27
-0.36
-0.41
-0.47
-0.55
-0.63
-0.65
-0.56
-0.40
-0.31
-0.45
-0.87
-1.47
-2.02
-2.30
-2.23
-1.90
-1.54
-1.32
-1.30
-1.40
-1.47
-1.45
-1.38
-1.39
-1.57
-1.88
-2.16
-2.24
-2.03
-1.56
-0.98
-0.43
-0.01
0.32
0.59
0.83
0.98
1.00
0.84
0.59
0.43
0.50
0.85
1.35
1.79
1.95
1.80
1.42
1.03
0.79
0.75
0.84
0.96
1.01
0.99
0.91
0.78
0.60
0.34
0.04
-0.20
-0.32
-0.28
-0.16
-0.06
-0.08
-0.20
-0.33
-0.35
-0.20
0.09
0.38
0.56
0.60
0.51
0.39
0.30
0.26
0.24
0.23
0.18
0.13
0.09
0.09
0.12
0.17
0.19
0.16
0.06
-0.12
-0.32
-0.52
-0.63
-0.62
-0.50
-0.35
-0.21
-0.15
-0.17
-0.23
-0.35
-0.55
-0.87
-1.33
-1.85
-2.32
-2.62
-2.68
-2.52
-2.22
-1.90
-1.63
-1.43
-1.31
-1.21
-1.10
-0.96
-0.76
-0.51
-0.20
0.17
0.57
0.98
1.38
1.72
2.00
2.22
2.39
2.51
2.57
2.53
2.37
2.08
1.69
1.31
1.05
1.00
1.16
1.41
1.59
1.52
1.16
0.54
-0.18
-0.80
-1.23
-1.38
-1.30
-1.07
-0.75
-0.40
-0.05
0.26
0.49
0.59
0.52
0.34
0.11
-0.09
-0.19
-0.19
-0.14
-0.11
-0.14
-0.27
-0.48
-0.73
-0.97
-1.19
-1.31
-1.32
-1.18
-0.90
-0.53
-0.18
0.07
0.21
0.25
0.30
0.42
0.68
1.05
1.47
1.81
1.94
1.78
1.31
0.60
-0.20
-0.95
-1.59
-2.09
-2.52
-2.93
-3.26
-3.42
-3.27
-2.73
-1.85
-0.82
0.11
0.75
0.99
0.88
0.55
0.14
-0.20
-0.41
-0.43
-0.24
0.14
0.62
1.06
1.29
1.21
0.83
0.33
-0.05
-0.12
0.15
0.62
1.03
1.17
0.97
0.52
0.03
-0.26
-0.23
0.09
0.56
0.97
1.17
1.14
0.97
0.78
0.68
0.68
0.71
0.67
0.50
0.24
-0.01
-0.15
-0.09
0.14
0.45
0.74
0.91
0.91
0.75
0.47
0.13
-0.22
-0.53
-0.81
-1.01
-1.09
-1.03
-0.85
-0.63
-0.49
-0.52
-0.71
-0.97
-1.14
-1.06
-0.70
-0.19
0.31
0.59
0.57
0.26
-0.21
-0.73
-1.17
-1.49
-1.69
-1.78
-1.76
-1.59
-1.23
-0.70
-0.11
0.41
0.70
0.70
0.47
0.17
-0.03
-0.02
0.19
0.51
0.83
1.11
1.33
1.55
1.75
1.88
1.84
1.57
1.08
0.51
0.01
-0.27
-0.25
0.03
0.47
0.93
1.32
1.59
1.73
1.71
1.56
1.27
0.90
0.53
0.24
0.10
0.13
0.26
0.42
0.53
0.55
0.49
0.36
0.18
-0.05
-0.29
-0.49
-0.58
-0.50
-0.27
-0.00
0.19
0.24
0.17
0.07
0.04
0.12
0.23
0.26
0.14
-0.13
-0.47
-0.76
-0.96
-1.10
-1.26
-1.53
-1.89
-2.29
-2.62
-2.82
-2.86
-2.75
-2.51
-2.18
-1.77
-1.33
-0.92
-0.57
-0.32
-0.09
0.13
0.38
0.61
0.75
0.75
0.62
0.45
0.35
0.40
0.56
0.75
0.88
0.91
0.88
0.85
0.89
1.01
1.16
1.27
1.29
1.18
0.99
0.75
0.55
0.42
0.37
0.38
0.42
0.47
0.52
0.57
0.63
0.67
0.71
0.72
0.72
0.76
0.80
0.80
0.67
0.39
-0.02
-0.44
-0.76
-0.89
-0.84
-0.69
-0.55
-0.48
-0.52
-0.65
-0.85
-1.08
-1.32
-1.53
-1.68
-1.73
-1.70
-1.58
-1.45
-1.34
-1.32
-1.42
-1.62
-1.85
-1.99
-1.96
-1.72
-1.33
-0.90
-0.53
-0.25
-0.05
0.11
0.27
0.39
0.44
0.41
0.31
0.24
0.28
0.48
0.82
1.24
1.61
1.85
1.90
1.77
1.54
1.30
1.17
1.21
1.41
1.69
1.92
1.97
1.77
1.36
0.85
0.37
0.03
-0.14
-0.17
-0.09
0.06
0.28
0.55
0.83
1.04
1.13
1.07
0.93
0.83
0.82
0.90
0.98
0.95
0.80
0.58
0.41
0.39
0.47
0.53
0.45
0.15
-0.32
-0.80
-1.14
-1.24
-1.11
-0.88
-0.65
-0.55
-0.58
-0.71
-0.87
-1.02
-1.14
-1.28
-1.49
-1.82
-2.23
-2.65
-2.92
-2.92
-2.56
-1.90
-1.06
-0.25
0.34
0.63
0.65
0.51
0.38
0.38
0.57
0.97
1.53
2.19
2.83
3.29
3.44
3.18
2.53
1.62
0.64
-0.19
-0.74
-0.96
-0.90
-0.67
-0.35
-0.04
0.18
0.30
0.31
0.27
0.25
0.29
0.37
0.44
0.38
0.15
-0.25
-0.75
-1.21
-1.50
-1.55
-1.38
-1.10
-0.82
-0.62
-0.51
-0.44
-0.35
-0.22
-0.05
0.08
0.12
0.09
0.03
0.00
-0.00
-0.05
-0.22
-0.57
-1.01
-1.43
-1.67
-1.68
-1.48
-1.20
-1.01
-1.00
-1.19
-1.46
-1.68
-1.69
-1.46
-1.05
-0.62
-0.31
-0.16
-0.13
-0.11
-0.02
0.14
0.26
0.25
0.09
-0.12
-0.22
-0.10
0.20
0.55
0.79
0.84
0.76
0.69
0.78
1.04
1.36
1.57
1.57
1.36
1.08
0.91
0.96
1.24
1.64
2.01
2.21
2.20
1.98
1.66
1.27
0.89
0.52
0.20
-0.03
-0.16
-0.18
-0.12
-0.02
0.05
0.10
0.15
0.28
0.52
0.85
1.16
1.34
1.29
1.01
0.61
0.21
-0.10
-0.32
-0.48
-0.66
-0.86
-1.05
-1.16
-1.12
-0.94
-0.70
-0.51
-0.45
-0.60
-0.94
-1.43
-1.98
-2.49
-2.89
-3.12
-3.20
-3.13
-2.94
-2.64
-2.24
-1.78
-1.30
-0.87
-0.54
-0.34
-0.27
-0.25
-0.22
-0.10
0.09
0.26
0.30
0.15
-0.15
-0.46
-0.60
-0.45
0.01
0.64
1.27
1.75
2.03
2.13
2.06
1.88
1.63
1.43
1.40
1.69
2.32
3.16
4.00
4.61
4.85
4.75
4.42
3.98
3.47
2.87
2.16
1.39
0.65
0.05
-0.38
-0.75
-1.17
-1.71
-2.30
-2.79
-2.97
-2.79
-2.35
-1.86
-1.57
-1.61
-1.94
-2.42
-2.85
-3.04
-2.92
-2.47
-1.82
-1.11
-0.50
-0.11
-0.01
-0.16
-0.48
-0.85
-1.21
-1.47
-1.66
-1.79
-1.92
-2.07
-2.21
-2.29
-2.19
-1.86
-1.29
-0.62
0.01
0.47
0.70
0.77
0.74
0.69
0.60
0.47
0.32
0.23
0.29
0.58
1.08
1.68
2.20
2.50
2.53
2.28
1.87
1.39
0.97
0.68
0.53
0.50
0.54
0.63
0.74
0.89
1.10
1.32
1.52
1.63
1.63
1.52
1.35
1.17
1.03
0.96
0.95
0.94
0.86
0.61
0.18
-0.40
-0.96
-1.30
-1.27
-0.90
-0.39
0.00
0.08
-0.15
-0.48
-0.69
-0.65
-0.42
-0.17
-0.04
-0.06
-0.14
-0.17
-0.13
-0.11
-0.22
-0.49
-0.85
-1.12
-1.18
-1.06
-0.88
-0.80
-0.93
-1.25
-1.65
-1.99
-2.13
-1.99
-1.60
-1.04
-0.47
-0.05
0.14
0.12
0.01
-0.06
-0.03
0.07
0.16
0.19
0.19
0.26
0.47
0.84
1.26
1.58
1.64
1.42
0.99
0.51
0.16
0.07
0.28
0.72
1.24
1.70
1.98
2.03
1.90
1.67
1.42
1.19
0.96
0.69
0.39
0.06
-0.24
-0.48
-0.66
-0.81
-0.92
-0.98
-0.97
-0.85
-0.68
-0.50
-0.40
-0.39
-0.45
-0.52
-0.55
-0.53
-0.49
-0.44
-0.39
-0.32
-0.23
-0.13
-0.06
-0.05
-0.14
-0.32
-0.59
-0.89
-1.18
-1.39
-1.48
-1.47
-1.44
-1.51
-1.77
-2.19
-2.62
-2.86
-2.71
-2.15
-1.28
-0.31
0.58
1.27
1.75
2.01
2.09
1.99
1.72
1.36
1.03
0.85
0.89
1.12
1.41
1.64
1.68
1.56
1.32
1.06
0.84
0.68
0.59
0.52
0.50
0.49
0.51
0.51
0.44
0.29
0.05
-0.19
-0.30
-0.21
0.08
0.46
0.76
0.83
0.63
0.25
-0.12
-0.34
-0.37
-0.29
-0.22
-0.23
-0.29
-0.30
-0.15
0.17
0.58
0.93
1.14
1.17
1.05
0.83
0.50
0.09
-0.37
-0.81
-1.16
-1.38
-1.48
-1.50
-1.49
-1.45
-1.34
-1.15
-0.87
-0.56
-0.27
-0.11
-0.11
-0.33
-0.76
-1.34
-1.96
-2.45
-2.63
-2.43
-1.86
-1.07
-0.28
0.33
0.64
0.67
0.54
0.43
0.47
0.68
0.98
1.25
1.37
1.31
1.10
0.83
0.57
0.34
0.10
-0.13
-0.32
-0.40
-0.29
0.06
0.59
1.22
1.82
2.30
2.58
2.57
2.25
1.61
0.75
-0.15
-0.91
-1.34
-1.32
-0.85
-0.02
0.99
2.00
2.86
3.43
3.65
3.50
3.02
2.31
1.48
0.65
-0.08
-0.67
-1.10
-1.42
-1.67
-1.88
-2.07
-2.19
-2.19
-2.04
-1.77
-1.46
-1.22
-1.15
-1.26
-1.51
-1.78
-1.96
-2.00
-1.89
-1.70
-1.51
-1.39
-1.38
-1.47
-1.65
-1.89
-2.13
-2.30
-2.34
-2.21
-1.94
-1.57
-1.14
-0.73
-0.33
0.03
0.36
0.65
0.86
0.93
0.84
0.60
0.29
0.02
-0.15
-0.21
-0.17
-0.07
0.09
0.27
0.48
0.69
0.87
0.98
0.99
0.92
0.80
0.69
0.60
0.57
0.62
0.75
0.94
1.14
1.29
1.33
1.26
1.10
0.86
0.58
0.29
-0.00
-0.28
-0.50
-0.63
-0.65
-0.61
-0.54
-0.50
-0.47
-0.36
-0.08
0.44
1.12
1.82
2.35
2.57
2.43
2.00
1.41
0.80
0.26
-0.19
-0.53
-0.81
-1.05
-1.32
-1.66
-2.13
-2.75
-3.42
-4.01
-4.29
-4.13
-3.47
-2.45
-1.33
-0.40
0.12
0.22
0.04
-0.17
-0.27
-0.20
-0.05
0.07
0.11
0.13
0.27
0.61
1.14
1.72
2.19
2.43
2.42
2.24
2.04
1.92
1.93
2.02
2.11
2.17
2.14
2.00
1.75
1.39
0.99
0.64
0.41
0.35
0.45
0.62
0.79
0.86
0.83
0.73
0.62
0.51
0.38
0.24
0.08
-0.05
-0.10
-0.07
-0.03
-0.07
-0.19
-0.35
-0.40
-0.25
0.12
0.57
0.92
0.99
0.75
0.36
-0.00
-0.16
-0.11
0.02
0.09
-0.00
-0.24
-0.50
-0.67
-0.72
-0.69
-0.71
-0.83
-1.01
-1.19
-1.31
-1.38
-1.51
-1.83
-2.36
-3.01
-3.60
-3.88
-3.76
-3.24
-2.48
-1.65
-0.92
-0.40
-0.12
-0.03
-0.06
-0.13
-0.18
-0.14
-0.00
0.22
0.49
0.78
1.07
1.36
1.65
1.93
2.18
2.36
2.42
2.35
2.21
2.06
1.97
1.99
2.07
2.14
2.07
1.84
1.49
1.12
0.83
0.68
0.65
0.63
0.54
0.32
0.03
-0.26
-0.48
-0.58
-0.58
-0.50
-0.34
-0.10
0.23
0.59
0.87
0.97
0.87
0.63
0.40
0.29
0.34
0.50
0.64
0.66
0.54
0.34
0.15
0.04
0.01
0.01
-0.04
-0.16
-0.36
-0.63
-0.90
-1.15
-1.36
-1.52
-1.65
-1.74
-1.80
-1.82
-1.83
-1.90
-2.07
-2.41
-2.91
-3.48
-3.97
-4.22
-4.11
-3.62
-2.87
-2.02
-1.26
-0.68
-0.29
0.01
0.30
0.65
1.07
1.51
1.87
2.06
2.07
1.94
1.75
1.59
1.49
1.44
1.36
1.22
1.02
0.83
0.76
0.89
1.23
1.67
2.06
2.24
2.15
1.83
1.40
1.01
0.76
0.66
0.63
0.62
0.59
0.54
0.52
0.54
0.59
0.57
0.44
0.22
-0.01
-0.12
-0.05
0.19
0.48
0.70
0.75
0.65
0.45
0.26
0.13
0.08
0.10
0.13
0.16
0.11
-0.03
-0.29
-0.63
-1.02
-1.38
-1.69
-1.95
-2.17
-2.37
-2.53
-2.64
-2.69
-2.69
-2.69
-2.74
-2.82
-2.94
-3.09
-3.24
-3.35
-3.38
-3.27
-2.96
-2.48
-1.89
-1.28
-0.74
-0.28
0.14
0.55
0.92
1.23
1.39
1.41
1.37
1.35
1.45
1.67
1.91
2.03
1.96
1.70
1.34
1.05
0.94
1.03
1.25
1.52
1.74
1.93
2.19
2.56
3.06
3.56
3.91
4.00
3.79
3.38
2.92
2.54
2.31
2.18
2.06
1.87
1.59
1.29
1.08
1.05
1.18
1.37
1.44
1.25
0.76
0.08
-0.57
-1.02
-1.14
-0.99
-0.69
-0.40
-0.24
-0.24
-0.35
-0.51
-0.64
-0.70
-0.69
-0.64
-0.61
-0.63
-0.70
-0.79
-0.80
-0.67
-0.42
-0.15
-0.00
-0.06
-0.27
-0.51
-0.63
-0.60
-0.57
-0.74
-1.30
-2.25
-3.38
-4.33
-4.77
-4.58
-3.87
-2.94
-2.12
-1.59
-1.36
-1.31
-1.28
-1.18
-1.00
-0.79
-0.57
-0.34
-0.02
0.40
0.87
1.28
1.51
1.55
1.45
1.37
1.43
1.71
2.18
2.74
3.23
3.51
3.48
3.13
2.54
1.87
1.28
0.84
0.53
0.29
0.04
-0.22
-0.42
-0.49
-0.39
-0.19
0.00
0.05
-0.11
-0.44
-0.82
-1.14
-1.32
-1.32
-1.18
-0.94
-0.66
-0.41
-0.22
-0.15
-0.20
-0.38
-0.64
-0.96
-1.24
-1.38
-1.32
-1.01
-0.49
0.12
0.62
0.84
0.72
0.32
-0.24
-0.78
-1.24
-1.63
-2.03
-2.51
-3.03
-3.46
-3.63
-3.46
-2.97
-2.32
-1.67
-1.11
-0.65
-0.21
0.26
0.76
1.19
1.48
1.51
1.31
0.96
0.59
0.31
0.22
0.31
0.56
0.90
1.28
1.67
2.02
2.29
2.44
2.44
2.31
2.11
1.93
1.81
1.75
1.69
1.54
1.29
0.94
0.60
0.35
0.24
0.23
0.27
0.30
0.26
0.19
0.09
-0.01
-0.12
-0.23
-0.34
-0.41
-0.41
-0.30
-0.10
0.16
0.45
0.72
0.97
1.17
1.29
1.32
1.25
1.06
0.75
0.33
-0.19
-0.75
-1.24
-1.58
-1.72
-1.65
-1.47
-1.29
-1.20
-1.25
-1.43
-1.71
-2.07
-2.50
-2.96
-3.40
-3.75
-3.91
-3.85
-3.55
-3.01
-2.30
-1.48
-0.68
-0.03
0.38
0.53
0.49
0.40
0.39
0.55
0.88
1.30
1.71
2.05
2.27
2.35
2.29
2.08
1.78
1.45
1.21
1.14
1.26
1.50
1.70
1.71
1.44
0.92
0.29
-0.25
-0.53
-0.49
-0.14
0.40
0.97
1.41
1.62
1.60
1.44
1.30
1.28
1.42
1.63
1.80
1.84
1.73
1.53
1.29
1.05
0.77
0.40
-0.07
-0.57
-1.01
-1.31
-1.43
-1.44
-1.38
-1.29
-1.13
-0.86
-0.50
-0.11
0.18
0.27
0.14
-0.15
-0.46
-0.69
-0.80
-0.85
-0.91
-1.01
-1.11
-1.14
-1.05
-0.85
-0.66
-0.61
-0.81
-1.26
-1.83
-2.34
-2.61
-2.54
-2.14
-1.49
-0.72
0.07
0.78
1.32
1.62
1.63
1.39
1.03
0.72
0.61
0.76
1.10
1.48
1.71
1.72
1.54
1.27
1.00
0.80
0.61
0.39
0.13
-0.17
-0.39
-0.45
-0.29
0.02
0.43
0.79
1.04
1.12
1.04
0.86
0.65
0.48
0.37
0.29
0.23
0.18
0.17
0.21
0.31
0.43
0.46
0.32
-0.02
-0.49
-0.99
-1.38
-1.59
-1.60
-1.48
-1.29
-1.10
-0.93
-0.78
-0.66
-0.56
-0.53
-0.60
-0.79
-1.09
-1.46
-1.82
-2.09
-2.20
-2.13
-1.90
-1.55
-1.18
-0.85
-0.63
-0.54
-0.59
-0.72
-0.88
-1.03
-1.14
-1.18
-1.11
-0.92
-0.58
-0.12
0.41
0.91
1.32
1.62
1.83
1.94
1.94
1.77
1.38
0.82
0.21
-0.30
-0.58
-0.62
-0.53
-0.41
-0.34
-0.28
-0.12
0.19
0.63
1.06
1.35
1.41
1.29
1.09
0.92
0.85
0.84
0.84
0.82
0.74
0.61
0.45
0.31
0.23
0.28
0.47
0.75
1.03
1.19
1.15
0.92
0.58
0.23
-0.03
-0.20
-0.31
-0.41
-0.53
-0.65
-0.77
-0.86
-0.92
-0.94
-0.91
-0.77
-0.50
-0.17
0.16
0.38
0.40
0.23
-0.04
-0.34
-0.62
-0.89
-1.16
-1.46
-1.76
-1.97
-2.07
-2.08
-2.10
-2.21
-2.42
-2.67
-2.86
-2.84
-2.57
-2.05
-1.39
-0.68
-0.02
0.57
1.09
1.54
1.92
2.17
2.21
2.02
1.64
1.20
0.88
0.78
0.88
1.02
1.01
0.77
0.38
0.05
-0.06
0.16
0.62
1.15
1.60
1.86
1.90
1.72
1.35
0.86
0.35
-0.06
-0.27
-0.24
-0.01
0.33
0.69
1.04
1.35
1.61
1.75
1.68
1.37
0.86
0.29
-0.14
-0.28
-0.10
0.32
0.79
1.16
1.32
1.28
1.10
0.85
0.57
0.26
-0.08
-0.41
-0.65
-0.70
-0.55
-0.25
0.11
0.40
0.53
0.47
0.25
-0.07
-0.41
-0.71
-0.93
-1.09
-1.28
-1.59
-2.07
-2.70
-3.36
-3.94
-4.32
-4.42
-4.27
-3.87
-3.26
-2.48
-1.64
-0.87
-0.31
-0.05
-0.01
-0.07
-0.04
0.21
0.70
1.31
1.89
2.28
2.39
2.23
1.89
1.50
1.18
1.01
1.03
1.20
1.44
1.68
1.80
1.79
1.62
1.35
1.00
0.63
0.31
0.06
-0.10
-0.19
-0.28
-0.41
-0.63
-0.93
-1.22
-1.41
-1.41
-1.22
-0.90
-0.53
-0.20
0.04
0.19
0.30
0.38
0.47
0.58
0.67
0.70
0.64
0.47
0.25
0.05
-0.02
0.07
0.27
0.46
0.51
0.34
-0.00
-0.43
-0.82
-1.13
-1.39
-1.65
-1.94
-2.25
-2.55
-2.82
-3.08
-3.36
-3.61
-3.75
-3.66
-3.27
-2.56
-1.67
-0.77
0.02
0.65
1.15
1.58
1.95
2.25
2.42
2.44
2.33
2.15
1.94
1.75
1.57
1.43
1.36
1.36
1.44
1.55
1.63
1.65
1.61
1.54
1.51
1.53
1.57
1.62
1.62
1.61
1.62
1.70
1.86
2.02
2.10
1.99
1.66
1.13
0.52
-0.06
-0.48
-0.68
-0.65
-0.43
-0.13
0.12
0.20
0.06
-0.26
-0.64
-0.98
-1.20
-1.35
-1.47
-1.58
-1.63
-1.51
-1.15
-0.60
-0.02
0.37
0.44
0.19
-0.24
-0.67
-0.97
-1.12
-1.19
-1.29
-1.44
-1.64
-1.83
-1.97
-2.10
-2.25
-2.47
-2.77
-3.05
-3.15
-2.93
-2.33
-1.44
-0.50
0.26
0.70
0.85
0.90
1.07
1.46
2.01
2.49
2.68
2.51
2.09
1.63
1.36
1.36
1.55
1.76
1.81
1.59
1.17
0.70
0.37
0.26
0.37
0.58
0.76
0.83
0.84
0.89
1.12
1.53
2.01
2.38
2.45
2.16
1.58
0.86
0.20
-0.26
-0.45
-0.38
-0.08
0.38
0.90
1.37
1.66
1.70
1.45
0.95
0.29
-0.48
-1.25
-1.94
-2.44
-2.66
-2.58
-2.26
-1.85
-1.49
-1.24
-1.06
-0.86
-0.56
-0.13
0.34
0.73
0.93
0.87
0.55
-0.02
-0.74
-1.54
-2.29
-2.89
-3.32
-3.56
-3.64
-3.58
-3.38
-3.02
-2.50
-1.85
-1.18
-0.57
-0.11
0.19
0.36
0.45
0.49
0.52
0.57
0.68
0.87
1.14
1.43
1.69
1.81
1.74
1.41
0.84
0.16
-0.43
-0.72
-0.61
-0.12
0.55
1.15
1.49
1.48
1.16
0.67
0.17
-0.24
-0.49
-0.57
-0.50
-0.32
-0.08
0.12
0.27
0.34
0.37
0.35
0.27
0.15
0.01
-0.10
-0.09
0.05
0.28
0.52
0.64
0.61
0.44
0.19
-0.06
-0.27
-0.42
-0.52
-0.54
-0.50
-0.43
-0.40
-0.45
-0.60
-0.80
-1.01
-1.19
-1.32
-1.43
-1.57
-1.79
-2.07
-2.35
-2.54
-2.52
-2.26
-1.72
-0.93
0.00
0.93
1.65
2.01
1.98
1.63
1.15
0.76
0.57
0.59
0.72
0.81
0.77
0.57
0.31
0.04
-0.13
-0.18
-0.10
0.07
0.30
0.53
0.74
0.92
1.07
1.20
1.29
1.31
1.22
1.03
0.80
0.63
0.59
0.70
0.89
1.04
1.03
0.85
0.57
0.34
0.30
0.46
0.74
1.03
1.22
1.29
1.30
1.27
1.24
1.11
0.87
0.50
0.13
-0.09
-0.07
0.21
0.56
0.80
0.81
0.57
0.18
-0.22
-0.50
-0.67
-0.78
-0.89
-1.04
-1.19
-1.27
-1.24
-1.13
-1.01
-1.00
-1.15
-1.42
-1.71
-1.91
-1.92
-1.75
-1.50
-1.25
-1.08
-0.94
-0.77
-0.53
-0.23
-0.01
0.06
-0.03
-0.21
-0.31
-0.20
0.17
0.67
1.15
1.43
1.45
1.25
0.97
0.75
0.71
0.91
1.30
1.76
2.17
2.40
2.40
2.13
1.65
1.04
0.44
-0.05
-0.29
-0.27
-0.02
0.35
0.68
0.85
0.80
0.54
0.13
-0.32
-0.70
-0.93
-0.98
-0.87
-0.66
-0.41
-0.19
-0.04
0.05
0.08
0.04
-0.05
-0.21
-0.42
-0.66
-0.85
-0.97
-1.03
-1.05
-1.10
-1.18
-1.26
-1.28
-1.18
-0.95
-0.63
-0.33
-0.17
-0.23
-0.52
-0.97
-1.48
-1.96
-2.35
-2.61
-2.74
-2.72
-2.53
-2.16
-1.65
-1.08
-0.55
-0.18
-0.04
-0.09
-0.22
-0.27
-0.11
0.27
0.79
1.27
1.57
1.63
1.47
1.21
0.97
0.86
0.88
1.01
1.17
1.27
1.28
1.21
1.12
1.05
1.06
1.18
1.41
1.71
2.02
2.27
2.36
2.22
1.83
1.24
0.58
0.00
-0.35
-0.43
-0.30
-0.06
0.17
0.26
0.17
-0.10
-0.47
-0.81
-0.96
-0.85
-0.54
-0.17
0.10
0.15
0.02
-0.17
-0.34
-0.46
-0.61
-0.84
-1.19
-1.56
-1.82
-1.92
-1.87
-1.77
-1.69
-1.64
-1.54
-1.31
-0.97
-0.62
-0.46
-0.62
-1.12
-1.82
-2.49
-2.89
-2.87
-2.41
-1.62
-0.70
0.14
0.73
1.02
1.05
0.93
0.80
0.77
0.89
1.13
1.46
1.79
2.09
2.31
2.47
2.52
2.46
2.26
1.93
1.53
1.10
0.73
0.43
0.23
0.13
0.09
0.13
0.25
0.41
0.58
0.71
0.77
0.76
0.70
0.64
0.63
0.67
0.78
0.89
0.98
0.99
0.92
0.82
0.76
0.84
1.04
1.30
1.46
1.44
1.17
0.71
0.20
-0.20
-0.39
-0.38
-0.26
-0.13
-0.10
-0.21
-0.43
-0.71
-1.00
-1.26
-1.48
-1.68
-1.85
-2.02
-2.16
-2.27
-2.33
-2.34
-2.29
-2.20
-2.08
-1.96
-1.90
-1.96
-2.13
-2.37
-2.59
-2.67
-2.54
-2.22
-1.79
-1.28
-0.74
-0.16
0.48
1.12
1.65
1.91
1.84
1.51
1.10
0.83
0.81
1.02
1.32
1.62
1.87
2.14
2.49
2.86
3.15
3.17
2.87
2.32
1.73
1.29
1.12
1.15
1.28
1.38
1.41
1.40
1.38
1.34
1.24
1.00
0.57
0.01
-0.53
-0.88
-0.92
-0.64
-0.22
0.11
0.16
-0.10
-0.58
-1.07
-1.38
-1.42
-1.22
-0.85
-0.44
-0.08
0.17
0.26
0.15
-0.14
-0.54
-0.96
-1.32
-1.57
-1.73
-1.82
-1.85
-1.85
-1.79
-1.70
-1.66
-1.74
-2.02
-2.48
-2.99
-3.36
-3.42
-3.09
-2.41
-1.55
-0.68
0.04
0.56
0.90
1.11
1.25
1.37
1.47
1.56
1.59
1.53
1.38
1.15
0.97
0.94
1.14
1.53
1.95
2.25
2.31
2.15
1.88
1.62
1.47
1.44
1.51
1.64
1.76
1.80
1.70
1.44
1.03
0.55
0.15
-0.06
-0.06
0.11
0.33
0.46
0.41
0.19
-0.17
-0.54
-0.83
-0.96
-0.88
-0.63
-0.31
-0.03
0.13
0.16
0.10
0.06
0.11
0.22
0.31
0.28
0.05
-0.38
-0.87
-1.27
-1.42
-1.28
-0.86
-0.31
0.20
0.48
0.47
0.16
-0.35
-0.89
-1.30
-1.48
-1.39
-1.11
-0.83
-0.71
-0.88
-1.35
-1.97
-2.56
-2.94
-3.06
-2.91
-2.59
-2.13
-1.56
-0.89
-0.16
0.53
1.04
1.27
1.20
0.90
0.44
-0.09
-0.63
-1.13
-1.49
-1.55
-1.22
-0.50
0.52
1.60
2.56
3.26
3.67
3.80
3.71
3.41
2.94
2.35
1.73
1.13
0.60
0.14
-0.25
-0.56
-0.75
-0.77
-0.63
-0.42
-0.21
-0.05
0.08
0.24
0.46
0.70
0.84
0.82
0.69
0.59
0.68
0.99
1.40
1.71
1.74
1.48
1.06
0.68
0.47
0.43
0.44
0.36
0.09
-0.32
-0.75
-1.07
-1.21
-1.17
-1.02
-0.88
-0.82
-0.89
-1.08
-1.34
-1.62
-1.90
-2.18
-2.46
-2.78
-3.09
-3.36
-3.49
-3.39
-3.04
-2.49
-1.86
-1.27
-0.80
-0.47
-0.21
0.08
0.46
0.92
1.41
1.84
2.13
2.27
2.25
2.13
1.95
1.68
1.35
0.94
0.50
0.10
-0.17
-0.22
-0.02
0.37
0.83
1.20
1.36
1.28
1.03
0.74
0.54
0.48
0.51
0.52
0.43
0.24
0.09
0.10
0.34
0.72
1.05
1.11
0.82
0.28
-0.28
-0.66
-0.76
-0.65
-0.50
-0.45
-0.49
-0.55
-0.51
-0.33
-0.07
0.14
0.22
0.12
-0.07
-0.25
-0.34
-0.34
-0.30
-0.31
-0.40
-0.63
-0.95
-1.35
-1.74
-2.05
-2.22
-2.20
-2.01
-1.70
-1.34
-0.98
-0.68
-0.48
-0.40
-0.44
-0.55
-0.66
-0.65
-0.43
-0.01
0.52
1.04
1.39
1.51
1.41
1.19
0.98
0.92
1.09
1.45
1.91
2.30
2.48
2.41
2.16
1.87
1.65
1.53
1.48
1.42
1.36
1.33
1.37
1.49
1.54
1.41
1.00
0.39
-0.24
-0.70
-0.89
-0.85
-0.70
-0.54
-0.40
-0.26
-0.08
0.10
0.19
0.11
-0.17
-0.55
-0.89
-1.05
-0.99
-0.79
-0.56
-0.43
-0.42
-0.51
-0.61
-0.68
-0.71
-0.76
-0.88
-1.08
-1.36
-1.67
-1.97
-2.20
-2.31
-2.26
-2.04
-1.66
-1.25
-0.91
-0.77
-0.86
-1.09
-1.33
-1.46
-1.40
-1.18
-0.89
-0.65
-0.49
-0.40
-0.26
0.00
0.42
0.91
1.31
1.49
1.40
1.09
0.72
0.46
0.43
0.66
1.08
1.55
1.92
2.07
1.95
1.61
1.18
0.86
0.81
1.08
1.57
2.08
2.41
2.42
2.12
1.62
1.13
0.78
0.64
0.70
0.84
0.95
0.94
0.81
0.57
0.32
0.13
0.03
-0.02
-0.07
-0.15
-0.27
-0.40
-0.54
-0.69
-0.86
-1.05
-1.24
-1.33
-1.27
-1.05
-0.77
-0.56
-0.53
-0.73
-1.12
-1.57
-1.94
-2.12
-2.08
-1.87
-1.60
-1.39
-1.31
-1.40
-1.61
-1.87
-2.09
-2.24
-2.25
-2.13
-1.89
-1.55
-1.15
-0.77
-0.44
-0.18
0.05
0.28
0.50
0.67
0.70
0.57
0.30
0.04
-0.13
-0.16
-0.10
-0.08
-0.20
-0.40
-0.56
-0.53
-0.22
0.29
0.85
1.27
1.47
1.52
1.52
1.56
1.64
1.73
1.74
1.67
1.60
1.61
1.77
2.07
2.38
2.59
2.61
2.37
1.96
1.49
1.11
0.89
0.84
0.85
0.79
0.56
0.14
-0.37
-0.84
-1.14
-1.25
-1.21
-1.09
-0.94
-0.77
-0.53
-0.22
0.12
0.40
0.51
0.40
0.07
-0.39
-0.90
-1.35
-1.69
-1.90
-1.99
-2.00
-2.01
-2.09
-2.27
-2.55
-2.83
-3.02
-3.01
-2.78
-2.35
-1.85
-1.37
-1.01
-0.80
-0.70
-0.67
-0.66
-0.61
-0.47
-0.20
0.21
0.74
1.27
1.69
1.91
1.91
1.74
1.52
1.39
1.42
1.62
1.91
2.19
2.37
2.41
2.33
2.19
2.07
2.00
1.95
1.86
1.66
1.32
0.94
0.63
0.52
0.65
0.90
1.13
1.17
0.96
0.57
0.14
-0.16
-0.27
-0.26
-0.23
-0.25
-0.30
-0.33
-0.22
0.04
0.37
0.67
0.83
0.79
0.57
0.23
-0.16
-0.54
-0.86
-1.04
-0.98
-0.65
-0.11
0.52
1.05
1.33
1.31
1.00
0.54
0.01
-0.48
-0.90
-1.27
-1.59
-1.88
-2.16
-2.46
-2.79
-3.17
-3.56
-3.81
-3.82
-3.50
-2.88
-2.10
-1.34
-0.73
-0.33
-0.11
0.04
0.21
0.43
0.68
0.89
1.00
0.98
0.88
0.78
0.72
0.76
0.91
1.13
1.37
1.63
1.90
2.20
2.51
2.72
2.74
2.47
1.94
1.27
0.65
0.27
0.16
0.28
0.50
0.71
0.85
0.91
0.89
0.78
0.57
0.28
-0.02
-0.23
-0.32
-0.33
-0.34
-0.42
-0.52
-0.55
-0.38
0.00
0.45
0.74
0.69
0.26
-0.42
-1.13
-1.63
-1.85
-1.80
-1.63
-1.43
-1.24
-1.07
-0.91
-0.78
-0.73
-0.79
-0.96
-1.17
-1.30
-1.28
-1.10
-0.84
-0.63
-0.58
-0.78
-1.24
-1.91
-2.65
-3.31
-3.68
-3.63
-3.15
-2.32
-1.35
-0.44
0.26
0.70
0.94
1.07
1.15
1.23
1.30
1.34
1.34
1.33
1.30
1.27
1.23
1.15
1.00
0.77
0.49
0.23
0.11
0.26
0.72
1.44
2.21
2.77
2.90
2.57
1.92
1.22
0.73
0.60
0.78
1.10
1.36
1.42
1.28
1.02
0.77
0.60
0.51
0.46
0.42
0.44
0.56
0.83
1.20
1.56
1.75
1.71
1.41
0.97
0.50
0.11
-0.18
-0.40
-0.59
-0.78
-0.97
-1.13
-1.24
-1.30
-1.31
-1.30
-1.31
-1.35
-1.39
-1.33
-1.13
-0.76
-0.31
0.06
0.14
-0.18
-0.91
-1.89
-2.90
-3.77
-4.33
-4.57
-4.48
-4.14
-3.62
-2.99
-2.31
-1.60
-0.87
-0.13
0.56
1.15
1.57
1.77
1.77
1.64
1.45
1.26
1.09
0.92
0.73
0.54
0.40
0.39
0.59
1.02
1.59
2.17
2.56
2.69
2.54
2.25
1.97
1.81
1.79
1.84
1.86
1.76
1.52
1.17
0.78
0.38
0.03
-0.24
-0.36
-0.30
-0.04
0.40
0.95
1.50
1.89
2.05
1.95
1.64
1.27
0.95
0.77
0.69
0.61
0.45
0.19
-0.10
-0.32
-0.40
-0.35
-0.30
-0.33
-0.51
-0.79
-1.05
-1.21
-1.25
-1.21
-1.22
-1.38
-1.72
-2.21
-2.75
-3.21
-3.51
-3.59
-3.46
-3.20
-2.89
-2.59
-2.37
-2.20
-2.04
-1.84
-1.57
-1.26
-0.95
-0.69
-0.50
-0.34
-0.18
0.02
0.26
0.47
0.61
0.67
0.66
0.63
0.63
0.67
0.74
0.82
0.90
0.99
1.15
1.43
1.88
2.43
3.00
3.42
3.56
3.39
2.97
2.44
1.96
1.60
1.36
1.16
0.93
0.64
0.34
0.14
0.12
0.28
0.53
0.73
0.76
0.59
0.29
-0.03
-0.26
-0.35
-0.38
-0.43
-0.58
-0.84
-1.11
-1.25
-1.22
-1.03
-0.80
-0.66
-0.66
-0.80
-1.00
-1.18
-1.27
-1.26
-1.17
-1.05
-0.98
-1.01
-1.19
-1.54
-2.05
-2.66
-3.30
-3.81
-4.06
-3.87
-3.19
-2.08
-0.76
0.50
1.47
2.02
2.20
2.13
1.96
1.78
1.61
1.40
1.10
0.71
0.28
-0.11
-0.37
-0.46
-0.40
-0.26
-0.13
-0.05
-0.00
0.04
0.11
0.24
0.46
0.78
1.21
1.74
2.33
2.87
3.27
3.47
3.49
3.36
3.15
2.85
2.47
1.97
1.35
0.68
0.03
-0.50
-0.86
-1.03
-1.02
-0.90
-0.72
-0.52
-0.31
-0.10
0.13
0.34
0.47
0.47
0.33
0.13
-0.01
0.03
0.29
0.73
1.19
1.49
1.51
1.23
0.73
0.17
-0.31
-0.62
-0.79
-0.94
-1.22
-1.70
-2.38
-3.16
-3.91
-4.47
-4.78
-4.85
-4.70
-4.37
-3.83
-3.12
-2.25
-1.34
-0.52
0.08
0.42
0.58
0.71
0.94
1.30
1.71
2.01
2.07
1.85
1.47
1.09
0.82
0.74
0.78
0.84
0.88
0.90
0.95
1.09
1.32
1.55
1.67
1.60
1.33
0.95
0.58
0.32
0.17
0.09
-0.02
-0.18
-0.35
-0.45
-0.42
-0.26
-0.06
0.09
0.15
0.16
0.16
0.21
0.27
0.28
0.16
-0.11
-0.49
-0.88
-1.20
-1.43
-1.58
-1.69
-1.80
-1.92
-2.03
-2.13
-2.20
-2.28
-2.42
-2.67
-3.05
-3.52
-3.98
-4.26
-4.21
-3.77
-3.01
-2.08
-1.18
-0.43
0.13
0.54
0.89
1.18
1.42
1.56
1.60
1.57
1.54
1.59
1.73
1.95
2.14
2.25
2.24
2.17
2.11
2.12
2.18
2.20
2.10
1.82
1.45
1.14
1.08
1.29
1.71
2.10
2.26
2.10
1.72
1.30
1.04
1.01
1.13
1.24
1.19
0.93
0.52
0.07
-0.28
-0.51
-0.61
-0.66
-0.68
-0.64
-0.48
-0.19
0.19
0.52
0.65
0.50
0.12
-0.32
-0.68
-0.84
-0.84
-0.79
-0.78
-0.85
-0.98
-1.09
-1.17
-1.28
-1.49
-1.85
-2.31
-2.80
-3.23
-3.58
-3.86
-4.08
-4.24
-4.29
-4.12
-3.69
-2.98
-2.06
-1.02
0.03
1.01
1.87
2.54
2.97
3.14
3.06
2.85
2.62
2.50
2.52
2.63
2.73
2.74
2.63
2.43
2.18
1.90
1.57
1.21
0.85
0.58
0.48
0.56
0.79
1.07
1.28
1.35
1.28
1.12
0.89
0.66
0.47
0.30
0.16
0.03
-0.12
-0.29
-0.46
-0.60
-0.65
-0.58
-0.39
-0.16
0.01
0.04
-0.11
-0.38
-0.66
-0.84
-0.85
-0.77
-0.72
-0.78
-0.91
-1.05
-1.06
-0.91
-0.68
-0.50
-0.47
-0.59
-0.73
-0.76
-0.65
-0.49
-0.46
-0.74
-1.36
-2.20
-3.02
-3.55
-3.67
-3.35
-2.75
-2.02
-1.29
-0.61
-0.01
0.51
0.90
1.11
1.15
1.09
1.08
1.23
1.57
1.96
2.24
2.25
1.96
1.51
1.07
0.80
0.76
0.86
1.02
1.15
1.26
1.38
1.55
1.77
1.95
1.99
1.82
1.45
1.01
0.66
0.57
0.82
1.35
1.93
2.32
2.35
1.98
1.37
0.72
0.23
-0.00
-0.07
-0.06
-0.11
-0.23
-0.39
-0.54
-0.66
-0.74
-0.80
-0.85
-0.93
-1.05
-1.21
-1.41
-1.58
-1.66
-1.63
-1.52
-1.44
-1.48
-1.71
-2.06
-2.43
-2.74
-2.96
-3.14
-3.37
-3.68
-4.00
-4.23
-4.21
-3.87
-3.27
-2.53
-1.76
-0.99
-0.22
0.58
1.35
1.98
2.33
2.39
2.23
2.00
1.85
1.79
1.76
1.69
1.58
1.48
1.51
1.66
1.82
1.85
1.71
1.43
1.16
1.03
1.09
1.31
1.59
1.87
2.12
2.35
2.48
2.44
2.19
1.73
1.19
0.72
0.44
0.39
0.51
0.69
0.80
0.76
0.57
0.29
0.02
-0.11
-0.02
0.25
0.57
0.80
0.83
0.64
0.32
0.03
-0.11
-0.08
0.08
0.29
0.49
0.69
0.87
1.00
0.99
0.74
0.22
-0.51
-1.28
-1.93
-2.34
-2.48
-2.45
-2.35
-2.28
-2.32
-2.50
-2.85
-3.34
-3.95
-4.58
-5.12
-5.45
-5.47
-5.11
-4.40
-3.42
-2.35
-1.33
-0.49
0.11
0.48
0.72
0.93
1.22
1.63
2.11
2.55
2.84
2.93
2.81
2.59
2.39
2.34
2.49
2.75
3.01
3.11
3.01
2.71
2.32
1.93
1.63
1.47
1.41
1.38
1.32
1.13
0.80
0.38
-0.01
-0.23
-0.21
0.06
0.44
0.79
0.97
0.95
0.76
0.53
0.37
0.36
0.47
0.67
0.87
0.99
0.94
0.72
0.35
-0.08
-0.43
-0.59
-0.51
-0.22
0.21
0.65
0.97
1.12
1.06
0.82
0.47
0.07
-0.32
-0.69
-1.08
-1.54
-2.12
-2.84
-3.67
-4.57
-5.42
-6.10
-6.48
-6.47
-6.09
-5.45
-4.67
-3.90
-3.18
-2.53
-1.89
-1.28
-0.68
-0.13
0.37
0.79
1.16
1.48
1.74
1.94
2.11
2.28
2.45
2.59
2.63
2.51
2.27
1.99
1.79
1.71
1.72
1.70
1.58
1.36
1.13
0.99
1.01
1.19
1.44
1.68
1.82
1.87
1.86
1.80
1.69
1.51
1.22
0.86
0.48
0.20
0.10
0.16
0.28
0.32
0.16
-0.21
-0.64
-0.96
-1.01
-0.75
-0.24
0.39
1.01
1.50
1.79
1.84
1.65
1.26
0.80
0.37
0.03
-0.21
-0.42
-0.69
-1.03
-1.41
-1.82
-2.22
-2.66
-3.13
-3.66
-4.17
-4.60
-4.94
-5.15
-5.27
-5.25
-5.05
-4.60
-3.90
-3.02
-2.10
-1.31
-0.73
-0.39
-0.17
0.04
0.35
0.79
1.30
1.76
2.09
2.24
2.28
2.31
2.41
2.63
2.90
3.11
3.15
3.01
2.75
2.48
2.28
2.17
2.18
2.29
2.53
2.90
3.32
3.67
3.77
3.52
2.95
2.25
1.68
1.40
1.44
1.62
1.74
1.64
1.33
0.97
0.75
0.76
0.95
1.14
1.12
0.80
0.25
-0.34
-0.77
-0.93
-0.87
-0.73
-0.68
-0.84
-1.16
-1.55
-1.85
-1.95
-1.87
-1.65
-1.43
-1.33
-1.41
-1.68
-2.08
-2.49
-2.83
-3.01
-3.01
-2.89
-2.73
-2.63
-2.67
-2.85
-3.15
-3.46
-3.74
-3.90
-3.94
-3.79
-3.41
-2.73
-1.77
-0.64
0.44
1.23
1.54
1.36
0.89
0.44
0.28
0.54
1.12
1.80
2.32
2.59
2.63
2.56
2.47
2.35
2.16
1.89
1.56
1.34
1.38
1.72
2.29
2.87
3.24
3.27
3.01
2.60
2.20
1.89
1.70
1.54
1.34
1.06
0.73
0.40
0.16
0.06
0.11
0.29
0.54
0.79
1.00
1.15
1.20
1.16
1.02
0.73
0.33
-0.17
-0.66
-1.05
-1.23
-1.15
-0.84
-0.39
0.07
0.40
0.50
0.31
-0.18
-0.90
-1.75
-2.52
-3.02
-3.14
-2.91
-2.49
-2.13
-2.03
-2.28
-2.84
-3.55
-4.29
-4.96
-5.50
-5.85
-5.92
-5.57
-4.72
-3.43
-1.90
-0.44
0.68
1.30
1.46
1.32
1.14
1.05
1.13
1.30
1.48
1.64
1.79
2.01
2.31
2.62
2.84
2.88
2.75
2.57
2.47
2.54
2.75
3.00
3.16
3.15
2.99
2.76
2.57
2.48
2.50
2.54
2.50
2.27
1.79
1.12
0.37
-0.28
-0.67
-0.73
-0.50
-0.09
0.37
0.80
1.13
1.32
1.36
1.23
0.98
0.71
0.53
0.55
0.79
1.14
1.43
1.51
1.29
0.83
0.24
-0.34
-0.86
-1.33
-1.81
-2.31
-2.76
-3.06
-3.14
-3.02
-2.83
-2.70
-2.72
-2.87
-3.06
-3.18
-3.22
-3.28
-3.49
-3.95
-4.61
-5.30
-5.77
-5.82
-5.35
-4.43
-3.24
-1.97
-0.79
0.23
1.09
1.79
2.31
2.62
2.72
2.65
2.48
2.32
2.22
2.15
2.07
1.90
1.64
1.38
1.24
1.33
1.65
2.14
2.64
3.01
3.17
3.11
2.89
2.58
2.27
2.01
1.81
1.63
1.49
1.42
1.44
1.59
1.84
2.10
2.29
2.30
2.09
1.71
1.23
0.73
0.29
-0.04
-0.27
-0.41
-0.49
-0.54
-0.57
-0.59
-0.59
-0.57
-0.54
-0.54
-0.62
-0.81
-1.07
-1.35
-1.59
-1.78
-1.95
-2.15
-2.37
-2.55
-2.61
-2.47
-2.17
-1.79
-1.49
-1.39
-1.56
-1.97
-2.53
-3.13
-3.63
-3.93
-3.98
-3.78
-3.36
-2.78
-2.11
-1.42
-0.77
-0.19
0.27
0.63
0.92
1.16
1.34
1.44
1.41
1.28
1.11
0.98
0.95
1.03
1.15
1.26
1.34
1.43
1.57
1.78
2.03
2.23
2.32
2.30
2.20
2.07
1.97
1.93
1.96
2.04
2.08
2.05
1.87
1.55
1.12
0.64
0.19
-0.15
-0.34
-0.36
-0.20
0.06
0.30
0.40
0.23
-0.17
-0.72
-1.26
-1.65
-1.87
-1.95
-1.95
-1.88
-1.74
-1.53
-1.30
-1.16
-1.18
-1.36
-1.60
-1.75
-1.72
-1.54
-1.33
-1.28
-1.47
-1.87
-2.34
-2.74
-2.97
-3.02
-2.90
-2.65
-2.25
-1.66
-0.91
-0.11
0.58
0.99
1.08
0.95
0.81
0.81
0.99
1.28
1.52
1.60
1.55
1.46
1.39
1.40
1.45
1.50
1.53
1.55
1.59
1.69
1.83
2.00
2.18
2.33
2.44
2.45
2.34
2.07
1.68
1.25
0.87
0.62
0.52
0.53
0.55
0.52
0.42
0.27
0.14
0.11
0.19
0.35
0.49
0.53
0.45
0.29
0.15
0.15
0.30
0.54
0.78
0.87
0.78
0.56
0.25
-0.11
-0.53
-1.06
-1.69
-2.32
-2.76
-2.85
-2.55
-2.02
-1.55
-1.42
-1.79
-2.56
-3.52
-4.37
-4.90
-5.00
-4.69
-4.02
-3.10
-2.02
-0.88
0.17
1.02
1.56
1.81
1.82
1.74
1.68
1.73
1.86
2.00
2.06
1.98
1.73
1.36
0.96
0.64
0.48
0.55
0.85
1.35
1.98
2.60
3.07
3.25
3.09
2.67
2.11
1.60
1.21
0.91
0.61
0.24
-0.22
-0.68
-1.02
-1.14
-1.01
-0.67
-0.21
0.25
0.59
0.67
0.50
0.13
-0.26
-0.52
-0.56
-0.44
-0.34
-0.40
-0.68
-1.07
-1.43
-1.62
-1.63
-1.56
-1.51
-1.53
-1.58
-1.59
-1.55
-1.53
-1.61
-1.90
-2.37
-2.89
-3.25
-3.27
-2.90
-2.23
-1.43
-0.71
-0.16
0.19
0.41
0.54
0.63
0.64
0.55
0.39
0.27
0.30
0.54
0.95
1.40
1.73
1.83
1.70
1.40
1.07
0.82
0.75
0.89
1.21
1.70
2.25
2.73
2.97
2.84
2.31
1.51
0.66
0.03
-0.22
-0.06
0.41
0.98
1.48
1.81
1.92
1.82
1.55
1.17
0.71
0.27
-0.07
-0.22
-0.13
0.17
0.58
0.97
1.25
1.34
1.22
0.96
0.61
0.25
-0.06
-0.30
-0.50
-0.70
-0.97
-1.35
-1.85
-2.39
-2.89
-3.21
-3.32
-3.22
-3.02
-2.84
-2.80
-2.93
-3.20
-3.52
-3.75
-3.78
-3.55
-3.09
-2.47
-1.81
-1.17
-0.61
-0.10
0.39
0.89
1.35
1.72
1.93
1.95
1.81
1.60
1.41
1.30
1.29
1.30
1.25
1.07
0.79
0.50
0.33
0.36
0.61
0.94
1.22
1.33
1.28
1.18
1.16
1.28
1.50
1.74
1.84
1.79
1.59
1.30
0.97
0.62
0.27
-0.03
-0.16
-0.07
0.27
0.77
1.27
1.60
1.69
1.56
1.30
0.99
0.70
0.41
0.16
-0.03
-0.10
-0.01
0.18
0.33
0.31
0.04
-0.43
-0.93
-1.31
-1.42
-1.29
-1.02
-0.78
-0.70
-0.83
-1.11
-1.41
-1.61
-1.64
-1.54
-1.41
-1.39
-1.54
-1.85
-2.21
-2.52
-2.75
-2.91
-3.02
-3.03
-2.88
-2.48
-1.80
-0.93
-0.06
0.62
0.97
1.00
0.85
0.70
0.71
0.92
1.25
1.58
1.76
1.72
1.50
1.24
1.06
1.07
1.26
1.58
1.90
2.14
2.25
2.23
2.09
1.87
1.62
1.38
1.21
1.18
1.32
1.59
1.86
2.00
1.90
1.50
0.86
0.13
-0.47
-0.78
-0.78
-0.52
-0.17
0.09
0.14
-0.05
-0.42
-0.81
-1.06
-1.07
-0.83
-0.48
-0.20
-0.12
-0.32
-0.73
-1.16
-1.44
-1.45
-1.19
-0.81
-0.51
-0.47
-0.73
-1.21
-1.72
-2.06
-2.16
-2.03
-1.86
-1.84
-2.09
-2.58
-3.15
-3.58
-3.70
-3.44
-2.88
-2.16
-1.41
-0.70
-0.04
0.55
1.03
1.32
1.33
1.07
0.62
0.18
-0.06
-0.02
0.23
0.52
0.67
0.60
0.41
0.25
0.29
0.53
0.84
1.06
1.13
1.12
1.20
1.51
2.03
2.55
2.80
2.59
1.94
1.07
0.34
0.02
0.22
0.79
1.44
1.88
1.96
1.74
1.36
1.00
0.76
0.64
0.55
0.43
0.22
-0.06
-0.34
-0.58
-0.75
-0.82
-0.84
-0.87
-0.97
-1.21
-1.56
-1.93
-2.20
-2.27
-2.15
-1.97
-1.87
-1.89
-2.00
-2.04
-1.90
-1.53
-1.05
-0.60
-0.35
-0.37
-0.62
-1.01
-1.43
-1.79
-2.04
-2.13
-2.01
-1.70
-1.21
-0.63
-0.09
0.35
0.67
0.88
1.06
1.22
1.36
1.40
1.32
1.12
0.87
0.67
0.57
0.52
0.45
0.29
0.10
0.00
0.15
0.60
1.28
1.98
2.48
2.67
2.56
2.27
1.96
1.75
1.66
1.65
1.68
1.66
1.58
1.43
1.29
1.21
1.17
1.15
1.03
0.72
0.21
-0.42
-0.95
-1.22
-1.16
-0.81
-0.33
0.08
0.31
0.33
0.16
-0.13
-0.49
-0.88
-1.23
-1.45
-1.47
-1.21
-0.72
-0.10
0.47
0.83
0.87
0.59
0.06
-0.58
-1.21
-1.74
-2.14
-2.39
-2.51
-2.52
-2.45
-2.34
-2.26
-2.24
-2.31
-2.45
-2.61
-2.72
-2.72
-2.58
-2.34
-2.04
-1.70
-1.36
-0.99
-0.57
-0.09
0.44
0.97
1.46
1.88
2.21
2.43
2.57
2.65
2.71
2.78
2.84
2.82
2.62
2.21
1.64
1.07
0.70
0.66
0.93
1.35
1.72
1.90
1.88
1.78
1.73
1.77
1.83
1.79
1.59
1.26
0.93
0.67
0.50
0.36
0.13
-0.23
-0.68
-1.11
-1.39
-1.44
-1.28
-0.98
-0.62
-0.25
0.09
0.40
0.65
0.81
0.85
0.74
0.47
0.11
-0.23
-0.43
-0.44
-0.31
-0.14
-0.12
-0.32
-0.71
-1.16
-1.49
-1.60
-1.53
-1.36
-1.22
-1.18
-1.25
-1.45
-1.82
-2.41
-3.23
-4.15
-4.89
-5.17
-4.81
-3.83
-2.44
-0.98
0.24
1.05
1.44
1.47
1.26
0.89
0.48
0.18
0.12
0.40
0.97
1.67
2.24
2.47
2.32
1.91
1.45
1.15
1.08
1.16
1.26
1.30
1.29
1.29
1.35
1.45
1.56
1.64
1.67
1.69
1.74
1.77
1.68
1.42
1.00
0.53
0.18
0.05
0.13
0.26
0.32
0.25
0.13
0.08
0.18
0.36
0.47
0.34
-0.03
-0.53
-0.92
-1.05
-0.94
-0.71
-0.53
-0.50
-0.53
-0.50
-0.29
0.03
0.31
0.30
-0.15
-1.04
-2.17
-3.28
-4.11
-4.51
-4.46
-4.08
-3.52
-2.89
-2.28
-1.68
-1.11
-0.56
-0.04
0.41
0.77
1.04
1.23
1.38
1.48
1.53
1.55
1.55
1.54
1.55
1.59
1.61
1.62
1.62
1.65
1.70
1.72
1.63
1.37
0.95
0.50
0.24
0.31
0.75
1.40
1.99
2.28
2.18
1.75
1.19
0.65
0.19
-0.24
-0.70
-1.20
-1.64
-1.87
-1.80
-1.43
-0.89
-0.36
0.01
0.16
0.12
-0.03
-0.22
-0.35
-0.33
-0.10
0.31
0.80
1.20
1.33
1.16
0.76
0.30
-0.06
-0.29
-0.46
-0.71
-1.14
-1.75
-2.38
-2.90
-3.19
-3.26
-3.20
-3.11
-3.09
-3.11
-3.09
-2.90
-2.46
-1.77
-0.95
-0.19
0.39
0.71
0.84
0.88
0.96
1.14
1.41
1.76
2.15
2.55
2.94
3.24
3.41
3.40
3.18
2.82
2.36
1.87
1.43
1.08
0.87
0.78
0.76
0.72
0.58
0.30
-0.06
-0.42
-0.67
-0.75
-0.69
-0.57
-0.49
-0.46
-0.43
-0.29
0.04
0.54
1.13
1.68
2.09
2.33
2.47
2.60
2.78
3.01
3.20
3.26
3.09
2.67
2.04
1.32
0.58
-0.12
-0.73
-1.30
-1.81
-2.29
-2.70
-3.02
-3.25
-3.45
-3.69
-4.00
-4.37
-4.69
-4.87
-4.86
-4.68
-4.41
-4.07
-3.61
-2.93
-1.96
-0.78
0.43
1.42
2.00
2.15
2.00
1.75
1.54
1.45
1.41
1.35
1.24
1.13
1.06
1.03
1.00
0.87
0.56
0.11
-0.37
-0.71
-0.80
-0.60
-0.17
0.33
0.72
0.84
0.64
0.18
-0.36
-0.79
-0.93
-0.75
-0.34
0.12
0.48
0.64
0.63
0.51
0.34
0.16
-0.08
-0.38
-0.70
-0.97
-1.13
-1.16
-1.13
-1.14
-1.29
-1.60
-2.04
-2.53
-2.97
-3.26
-3.34
-3.19
-2.80
-2.23
-1.52
-0.77
-0.03
0.61
1.10
1.41
1.52
1.47
1.37
1.28
1.27
1.33
1.39
1.36
1.19
0.92
0.66
0.56
0.71
1.07
1.48
1.74
1.74
1.50
1.19
1.00
1.06
1.34
1.66
1.86
1.82
1.59
1.25
0.96
0.79
0.76
0.83
0.97
1.18
1.46
1.83
2.23
2.57
2.69
2.50
1.99
1.28
0.58
0.07
-0.13
-0.06
0.18
0.43
0.57
0.54
0.35
0.02
-0.42
-0.90
-1.36
-1.77
-2.06
-2.22
-2.25
-2.15
-1.95
-1.70
-1.47
-1.37
-1.49
-1.88
-2.47
-3.14
-3.72
-4.09
-4.19
-4.00
-3.54
-2.91
-2.17
-1.45
-0.84
-0.43
-0.22
-0.14
-0.10
0.01
0.24
0.52
0.79
0.97
1.06
1.14
1.28
1.51
1.79
1.98
2.01
1.85
1.59
1.39
1.38
1.63
2.10
2.67
3.21
3.60
3.76
3.66
3.36
2.89
2.36
1.85
1.45
1.20
1.09
1.11
1.18
1.23
1.20
1.06
0.82
0.53
0.28
0.10
-0.00
-0.04
-0.04
-0.03
-0.05
-0.13
-0.31
-0.65
-1.15
-1.73
-2.25
-2.52
-2.43
-2.01
-1.42
-0.91
-0.67
-0.73
-0.99
-1.29
-1.52
-1.64
-1.74
-1.91
-2.21
-2.61
-3.07
-3.49
-3.80
-3.90
-3.74
-3.29
-2.59
-1.73
-0.87
-0.16
0.34
0.63
0.80
0.97
1.21
1.54
1.93
2.30
2.57
2.70
2.68
2.53
2.32
2.12
1.98
1.93
1.92
1.89
1.76
1.49
1.13
0.78
0.58
0.60
0.80
1.08
1.21
1.05
0.58
-0.10
-0.75
-1.17
-1.24
-1.06
-0.79
-0.61
-0.60
-0.68
-0.72
-0.62
-0.36
-0.07
0.13
0.15
0.02
-0.16
-0.28
-0.33
-0.37
-0.47
-0.68
-0.93
-1.13
-1.18
-1.07
-0.89
-0.76
-0.79
-1.05
-1.53
-2.17
-2.88
-3.56
-4.11
-4.44
-4.46
-4.12
-3.46
-2.56
-1.58
-0.66
0.04
0.47
0.62
0.61
0.57
0.64
0.90
1.34
1.89
2.39
2.74
2.82
2.64
2.26
1.85
1.58
1.59
1.89
2.37
2.86
3.21
3.39
3.45
3.45
3.42
3.33
3.11
2.74
2.31
1.98
1.91
2.14
2.50
2.75
2.63
2.03
1.09
0.09
-0.63
-0.92
-0.81
-0.51
-0.30
-0.34
-0.67
-1.14
-1.56
-1.80
-1.81
-1.62
-1.30
-0.92
-0.51
-0.13
0.13
0.22
0.11
-0.17
-0.56
-0.95
-1.24
-1.38
-1.35
-1.16
-0.91
-0.71
-0.68
-0.87
-1.25
-1.71
-2.14
-2.43
-2.56
-2.66
-2.85
-3.20
-3.68
-4.17
-4.52
-4.63
-4.49
-4.12
-3.58
-2.89
-2.07
-1.18
-0.35
0.33
0.80
1.08
1.27
1.46
1.66
1.77
1.72
1.46
1.10
0.76
0.58
0.59
0.73
0.93
1.16
1.44
1.79
2.17
2.47
2.61
2.54
2.35
2.16
2.04
1.95
1.79
1.47
1.04
0.64
0.47
0.59
0.92
1.23
1.33
1.15
0.79
0.42
0.19
0.10
0.05
-0.09
-0.36
-0.68
-0.91
-0.93
-0.73
-0.47
-0.33
-0.44
-0.81
-1.28
-1.67
-1.84
-1.78
-1.58
-1.40
-1.37
-1.54
-1.89
-2.35
-2.82
-3.23
-3.52
-3.64
-3.57
-3.30
-2.83
-2.18
-1.40
-0.58
0.18
0.81
1.26
1.57
1.80
2.01
2.24
2.45
2.60
2.61
2.45
2.13
1.78
1.53
1.50
1.72
2.05
2.31
2.31
2.00
1.48
0.96
0.61
0.54
0.68
0.91
1.12
1.28
1.44
1.65
1.89
2.06
2.06
1.80
1.28
0.62
-0.01
-0.44
-0.62
-0.57
-0.41
-0.28
-0.27
-0.33
-0.38
-0.31
-0.08
0.21
0.42
0.39
0.09
-0.39
-0.85
-1.14
-1.14
-0.90
-0.55
-0.30
-0.31
-0.65
-1.29
-2.09
-2.90
-3.55
-3.97
-4.11
-3.98
-3.65
-3.18
-2.64
-2.08
-1.53
-0.96
-0.34
0.34
1.02
1.62
2.02
2.20
2.20
2.09
1.96
1.81
1.63
1.43
1.25
1.15
1.17
1.31
1.53
1.75
1.97
2.14
2.24
2.24
2.08
1.80
1.50
1.33
1.36
1.53
1.70
1.72
1.54
1.25
0.99
0.87
0.87
0.89
0.83
0.63
0.32
-0.01
-0.26
-0.42
-0.51
-0.59
-0.68
-0.78
-0.85
-0.85
-0.79
-0.66
-0.50
-0.34
-0.19
-0.04
0.05
0.05
-0.05
-0.24
-0.48
-0.71
-0.90
-1.11
-1.36
-1.67
-1.99
-2.21
-2.22
-2.05
-1.79
-1.67
-1.87
-2.45
-3.31
-4.24
-4.97
-5.34
-5.25
-4.73
-3.88
-2.84
-1.74
-0.68
0.27
1.06
1.62
1.94
2.00
1.88
1.66
1.51
1.51
1.71
2.06
2.42
2.65
2.65
2.38
1.90
1.36
0.93
0.79
1.02
1.56
2.25
2.83
3.11
2.98
2.54
1.96
1.42
1.03
0.79
0.65
0.51
0.35
0.17
-0.01
-0.17
-0.30
-0.40
-0.46
-0.49
-0.47
-0.40
-0.30
-0.21
-0.14
-0.11
-0.11
-0.18
-0.38
-0.74
-1.23
-1.77
-2.21
-2.42
-2.36
-2.03
-1.56
-1.14
-0.91
-1.01
-1.45
-2.15
-2.93
-3.59
-3.98
-4.01
-3.75
-3.35
-2.96
-2.68
-2.51
-2.36
-2.14
-1.76
-1.22
-0.54
0.24
1.06
1.86
2.59
3.15
3.47
3.52
3.35
3.08
2.87
2.81
2.93
3.13
3.29
3.30
3.14
2.85
2.53
2.25
2.03
1.85
1.70
1.58
1.50
1.43
1.33
1.19
1.01
0.80
0.61
0.41
0.15
-0.17
-0.54
-0.83
-0.92
-0.69
-0.21
0.36
0.84
1.09
1.11
0.98
0.80
0.56
0.24
-0.19
-0.67
-1.09
-1.32
-1.30
-1.08
-0.77
-0.50
-0.31
-0.19
-0.14
-0.18
-0.34
-0.71
-1.28
-1.98
-2.72
-3.41
-4.01
-4.51
-4.93
-5.23
-5.35
-5.23
-4.80
-4.07
-3.09
-1.99
-0.93
-0.05
0.55
0.83
0.84
0.69
0.50
0.42
0.55
0.96
1.63
2.44
3.23
3.81
4.07
3.96
3.56
3.04
2.60
2.41
2.51
2.84
3.23
3.49
3.45
3.09
2.52
1.92
1.49
1.31
1.39
1.63
1.91
2.10
2.13
1.98
1.67
1.27
0.88
0.59
0.45
0.46
0.54
0.65
0.72
0.74
0.71
0.66
0.58
0.41
0.13
-0.26
-0.69
-1.05
-1.26
-1.31
-1.21
-1.03
-0.82
-0.64
-0.50
-0.47
-0.60
-0.92
-1.39
-1.89
-2.29
-2.50
-2.54
-2.55
-2.69
-3.04
-3.56
-4.07
-4.35
-4.27
-3.83
-3.14
-2.35
-1.58
-0.89
-0.28
0.21
0.57
0.79
0.87
0.87
0.83
0.81
0.81
0.82
0.84
0.89
0.97
1.05
1.11
1.09
0.97
0.80
0.62
0.52
0.53
0.62
0.78
0.97
1.19
1.43
1.65
1.79
1.75
1.49
1.02
0.43
-0.14
-0.54
-0.71
-0.66
-0.49
-0.28
-0.11
0.04
0.24
0.52
0.87
1.18
1.30
1.11
0.60
-0.13
-0.89
-1.46
-1.71
-1.63
-1.31
-0.92
-0.60
-0.41
-0.34
-0.31
-0.25
-0.15
-0.10
-0.25
-0.66
-1.38
-2.29
-3.20
-3.92
-4.33
-4.43
-4.29
-4.03
-3.68
-3.21
-2.54
-1.65
-0.59
0.50
1.46
2.15
2.50
2.54
2.37
2.06
1.73
1.47
1.36
1.51
1.90
2.48
3.11
3.56
3.69
3.48
3.01
2.47
2.03
1.75
1.58
1.41
1.18
0.90
0.67
0.58
0.62
0.70
0.71
0.62
0.52
0.57
0.83
1.22
1.55
1.64
1.45
1.06
0.64
0.29
-0.02
-0.36
-0.76
-1.17
-1.46
-1.56
-1.47
-1.34
-1.26
-1.28
-1.34
-1.30
-1.13
-0.83
-0.49
-0.20
-0.03
0.00
-0.14
-0.46
-0.98
-1.61
-2.22
-2.71
-2.98
-3.03
-2.93
-2.80
-2.72
-2.77
-2.94
-3.18
-3.40
-3.50
-3.40
-3.07
-2.57
-1.97
-1.38
-0.85
-0.37
0.09
0.55
1.00
1.37
1.64
1.83
1.97
2.13
2.31
2.53
2.73
2.85
2.87
2.80
2.66
2.47
2.22
1.93
1.63
1.41
1.35
1.50
1.82
2.18
2.43
2.49
2.33
2.00
1.59
1.16
0.75
0.40
0.15
0.04
0.11
0.31
0.60
0.94
1.29
1.64
1.92
2.02
1.82
1.31
0.57
-0.19
-0.74
-0.99
-0.98
-0.89
-0.87
-1.00
-1.19
-1.31
-1.29
-1.14
-1.01
-1.04
-1.26
-1.54
-1.71
-1.61
-1.28
-0.91
-0.76
-1.04
-1.75
-2.72
-3.68
-4.43
-4.89
-5.07
-4.99
-4.62
-3.91
-2.85
-1.60
-0.39
0.48
0.84
0.68
0.20
-0.32
-0.64
-0.62
-0.29
0.26
0.86
1.39
1.74
1.92
1.97
1.97
1.94
1.85
1.64
1.28
0.84
0.43
0.22
0.25
0.45
0.66
0.70
0.53
0.23
-0.02
-0.04
0.18
0.54
0.84
0.96
0.90
0.74
0.62
0.62
0.75
0.98
1.25
1.52
1.75
1.89
1.88
1.69
1.30
0.78
0.25
-0.18
-0.43
-0.52
-0.51
-0.46
-0.42
-0.42
-0.46
-0.57
-0.76
-1.07
-1.44
-1.82
-2.15
-2.40
-2.61
-2.82
-3.11
-3.46
-3.77
-3.95
-3.87
-3.51
-2.93
-2.27
-1.68
-1.27
-1.05
-0.94
-0.85
-0.67
-0.38
0.01
0.42
0.82
1.19
1.51
1.75
1.85
1.81
1.67
1.55
1.58
1.85
2.29
2.72
2.91
2.71
2.17
1.47
0.84
0.50
0.49
0.73
1.03
1.22
1.18
0.95
0.64
0.39
0.30
0.37
0.52
0.68
0.81
0.93
1.11
1.32
1.52
1.59
1.43
1.04
0.51
0.02
-0.27
-0.27
-0.01
0.40
0.78
1.04
1.12
1.02
0.77
0.40
-0.07
-0.59
-1.09
-1.50
-1.77
-1.89
-1.87
-1.77
-1.64
-1.50
-1.40
-1.36
-1.42
-1.60
-1.89
-2.23
-2.57
-2.86
-3.07
-3.20
-3.22
-3.09
-2.76
-2.23
-1.58
-0.96
-0.50
-0.25
-0.15
-0.09
0.06
0.35
0.72
1.08
1.35
1.49
1.52
1.46
1.36
1.21
1.06
0.94
0.90
0.98
1.10
1.18
1.14
0.95
0.69
0.47
0.36
0.34
0.36
0.34
0.29
0.25
0.27
0.39
0.57
0.75
0.85
0.87
0.80
0.72
0.69
0.73
0.87
1.06
1.23
1.26
1.07
0.67
0.19
-0.18
-0.29
-0.12
0.19
0.45
0.54
0.49
0.40
0.37
0.39
0.33
0.07
-0.44
-1.06
-1.62
-1.93
-1.96
-1.80
-1.62
-1.52
-1.54
-1.64
-1.72
-1.68
-1.47
-1.04
-0.47
0.17
0.72
1.08
1.26
1.34
1.47
1.68
1.89
1.91
1.59
0.92
0.09
-0.58
-0.86
-0.68
-0.19
0.36
0.78
0.96
0.98
0.91
0.84
0.76
0.63
0.41
0.14
-0.08
-0.13
0.06
0.41
0.80
1.03
1.00
0.70
0.27
-0.14
-0.38
-0.38
-0.20
0.07
0.33
0.45
0.40
0.20
-0.09
-0.40
-0.64
-0.77
-0.79
-0.73
-0.67
-0.62
-0.57
-0.49
-0.36
-0.23
-0.18
-0.25
-0.42
-0.65
-0.86
-0.99
-1.04
-1.04
-1.05
-1.12
-1.25
-1.39
-1.51
-1.56
-1.56
-1.54
-1.50
-1.44
-1.31
-1.12
-0.88
-0.67
-0.60
-0.73
-1.06
-1.42
-1.64
-1.53
-1.03
-0.25
0.58
1.24
1.56
1.53
1.28
1.00
0.84
0.85
1.00
1.19
1.34
1.48
1.64
1.89
2.24
2.64
2.98
3.19
3.23
3.15
2.98
2.79
2.59
2.35
2.07
1.74
1.40
1.11
0.90
0.76
0.66
0.54
0.35
0.09
-0.24
-0.58
-0.91
-1.20
-1.45
-1.66
-1.81
-1.84
-1.74
-1.54
-1.32
-1.17
-1.16
-1.23
-1.32
-1.36
-1.30
-1.20
-1.12
-1.06
-0.98
-0.80
-0.47
-0.04
0.36
0.64
0.70
0.55
0.28
-0.08
-0.47
-0.87
-1.27
-1.63
-1.91
-2.12
-2.28
-2.44
-2.62
-2.77
-2.82
-2.68
-2.32
-1.76
-1.07
-0.35
0.34
0.90
1.27
1.39
1.27
0.97
0.65
0.43
0.39
0.51
0.69
0.82
0.84
0.79
0.75
0.79
0.93
1.14
1.37
1.55
1.65
1.65
1.53
1.26
0.89
0.50
0.20
0.07
0.13
0.33
0.55
0.73
0.82
0.82
0.75
0.63
0.46
0.29
0.14
0.04
-0.04
-0.14
-0.31
-0.55
-0.74
-0.77
-0.55
-0.13
0.34
0.67
0.74
0.54
0.16
-0.22
-0.51
-0.66
-0.69
-0.60
-0.42
-0.11
0.27
0.61
0.77
0.64
0.21
-0.43
-1.04
-1.43
-1.51
-1.36
-1.16
-1.15
-1.46
-2.09
-2.89
-3.64
-4.10
-4.15
-3.78
-3.08
-2.16
-1.19
-0.27
0.50
1.06
1.39
1.55
1.62
1.70
1.82
1.94
2.00
1.92
1.69
1.41
1.18
1.04
0.94
0.79
0.54
0.20
-0.06
-0.11
0.11
0.52
0.96
1.29
1.46
1.47
1.41
1.29
1.14
0.95
0.81
0.82
1.06
1.56
2.15
2.65
2.87
2.77
2.44
2.01
1.61
1.26
0.90
0.46
-0.06
-0.57
-0.97
-1.14
-1.07
-0.82
-0.54
-0.38
-0.42
-0.62
-0.88
-1.05
-1.04
-0.86
-0.64
-0.51
-0.56
-0.78
-1.07
-1.38
-1.67
-1.98
-2.33
-2.71
-3.05
-3.27
-3.36
-3.40
-3.47
-3.61
-3.76
-3.79
-3.59
-3.16
-2.55
-1.91
-1.29
-0.73
-0.21
0.29
0.73
1.05
1.21
1.21
1.12
1.04
1.01
1.03
1.02
0.92
0.71
0.48
0.31
0.29
0.45
0.75
1.12
1.48
1.79
2.01
2.13
2.14
2.07
1.96
1.91
2.02
2.29
2.67
3.01
3.17
3.08
2.76
2.32
1.90
1.57
1.36
1.26
1.22
1.23
1.26
1.28
1.23
1.04
0.69
0.22
-0.26
-0.61
-0.76
-0.72
-0.61
-0.56
-0.63
-0.82
-1.01
-1.09
-1.02
-0.90
-0.84
-0.96
-1.29
-1.77
-2.24
-2.56
-2.66
-2.51
-2.19
-1.81
-1.47
-1.25
-1.19
-1.28
-1.48
-1.70
-1.88
-1.95
-1.86
-1.61
-1.24
-0.80
-0.38
-0.03
0.23
0.42
0.53
0.60
0.61
0.57
0.50
0.49
0.58
0.79
1.08
1.36
1.52
1.47
1.21
0.80
0.36
0.02
-0.09
0.07
0.52
1.18
1.88
2.47
2.74
2.62
2.08
1.23
0.26
-0.60
-1.15
-1.30
-1.08
-0.65
-0.21
0.11
0.28
0.39
0.51
0.70
0.87
0.90
0.69
0.25
-0.28
-0.72
-0.88
-0.71
-0.27
0.26
0.70
0.90
0.83
0.53
0.10
-0.39
-0.87
-1.33
-1.79
-2.19
-2.52
-2.72
-2.81
-2.84
-2.91
-3.10
-3.38
-3.69
-3.90
-3.91
-3.68
-3.23
-2.62
-1.96
-1.33
-0.82
-0.51
-0.40
-0.42
-0.43
-0.30
0.08
0.70
1.50
2.36
3.16
3.79
4.15
4.19
3.88
3.32
2.68
2.16
1.92
1.95
2.15
2.30
2.26
2.01
1.62
1.24
0.97
0.83
0.76
0.72
0.73
0.82
1.05
1.42
1.84
2.20
2.42
2.48
2.38
2.21
1.98
1.74
1.53
1.33
1.10
0.82
0.41
-0.11
-0.67
-1.12
-1.33
-1.26
-0.98
-0.67
-0.49
-0.50
-0.63
-0.75
-0.76
-0.62
-0.39
-0.18
-0.13
-0.30
-0.72
-1.34
-2.05
-2.68
-3.11
-3.26
-3.17
-2.97
-2.78
-2.68
-2.70
-2.78
-2.90
-3.06
-3.29
-3.61
-3.92
-4.10
-3.98
-3.50
-2.74
-1.87
-1.08
-0.45
0.04
0.51
1.07
1.72
2.38
2.91
3.17
3.10
2.77
2.32
1.89
1.62
1.52
1.56
1.66
1.75
1.85
2.02
2.29
2.65
2.96
3.07
2.86
2.32
1.55
0.76
0.17
-0.08
0.06
0.50
1.10
1.70
2.16
2.41
2.43
2.29
2.09
1.86
1.65
1.47
1.30
1.14
0.98
0.81
0.60
0.31
-0.04
-0.41
-0.68
-0.76
-0.62
-0.34
-0.07
0.03
-0.10
-0.44
-0.83
-1.14
-1.28
-1.25
-1.18
-1.14
-1.23
-1.44
-1.69
-1.87
-1.95
-1.94
-1.90
-1.94
-2.12
-2.47
-2.99
-3.61
-4.29
-4.94
-5.45
-5.73
-5.67
-5.23
-4.43
-3.39
-2.28
-1.25
-0.43
0.14
0.48
0.65
0.75
0.91
1.22
1.72
2.35
2.96
3.37
3.43
3.11
2.55
2.00
1.67
1.73
2.11
2.67
3.21
3.57
3.71
3.70
3.59
3.45
3.29
3.11
2.91
2.69
2.44
2.17
1.86
1.50
1.08
0.64
0.22
-0.07
-0.18
-0.11
0.08
0.26
0.28
0.11
-0.20
-0.54
-0.76
-0.83
-0.79
-0.74
-0.75
-0.82
-0.88
-0.92
-0.92
-0.91
-0.93
-0.94
-0.87
-0.68
-0.42
-0.21
-0.22
-0.51
-1.00
-1.53
-1.89
-1.98
-1.84
-1.65
-1.57
-1.76
-2.24
-2.93
-3.74
-4.57
-5.33
-5.91
-6.20
-6.07
-5.47
-4.42
-3.10
-1.72
-0.51
0.43
1.09
1.50
1.73
1.82
1.84
1.84
1.94
2.17
2.52
2.87
3.07
3.01
2.74
2.42
2.20
2.22
2.44
2.74
2.98
3.06
2.99
2.83
2.65
2.51
2.41
2.31
2.17
1.95
1.67
1.33
1.01
0.74
0.58
0.55
0.64
0.78
0.93
1.00
0.95
0.78
0.51
0.24
0.05
0.02
0.15
0.40
0.68
0.90
1.07
1.21
1.34
1.45
1.47
1.28
0.81
0.09
-0.76
-1.54
-2.10
-2.39
-2.45
-2.39
-2.32
-2.33
-2.43
-2.60
-2.79
-2.96
-3.08
-3.16
-3.28
-3.52
-3.97
-4.64
-5.44
-6.18
-6.65
-6.67
-6.20
-5.31
-4.15
-2.90
-1.72
-0.74
0.02
0.57
0.95
1.30
1.71
2.25
2.88
3.47
3.85
3.90
3.58
3.04
2.43
1.96
1.73
1.75
1.99
2.39
2.90
3.48
4.04
4.46
4.55
4.21
3.50
2.61
1.80
1.33
1.29
1.58
1.97
2.18
2.07
1.63
1.01
0.42
0.05
0.01
0.21
0.50
0.74
0.82
0.72
0.51
0.25
-0.02
-0.29
-0.56
-0.78
-0.91
-0.93
-0.90
-0.91
-1.02
-1.24
-1.46
-1.58
-1.54
-1.39
-1.25
-1.23
-1.42
-1.83
-2.40
-3.04
-3.63
-4.06
-4.26
-4.25
-4.14
-4.10
-4.31
-4.83
-5.57
-6.32
-6.84
-6.93
-6.55
-5.76
-4.72
-3.56
-2.39
-1.30
-0.31
0.51
1.12
1.51
1.72
1.83
1.97
2.24
2.72
3.37
4.12
4.84
5.40
5.71
5.70
5.40
4.89
4.33
3.86
3.61
3.60
3.78
4.02
4.18
4.17
3.98
3.65
3.25
2.84
2.49
2.27
2.17
2.20
2.30
2.41
2.47
2.44
2.34
2.17
1.97
1.73
1.42
1.03
0.61
0.24
0.02
-0.02
0.07
0.19
0.21
0.09
-0.18
-0.51
-0.83
-1.04
-1.11
-1.04
-0.86
-0.65
-0.49
-0.48
-0.66
-1.02
-1.50
-2.00
-2.45
-2.75
-2.90
-2.97
-3.05
-3.22
-3.50
-3.84
-4.19
-4.51
-4.81
-5.16
-5.61
-6.17
-6.79
-7.39
-7.83
-7.97
-7.67
-6.85
-5.55
-3.93
-2.29
-0.90
0.03
0.52
0.74
0.91
1.19
1.65
2.21
2.81
3.38
3.92
4.38
4.72
4.90
4.93
4.87
4.83
4.87
4.97
5.08
5.13
5.10
5.06
5.10
5.27
5.55
5.84
6.03
6.01
5.75
5.26
4.55
3.66
2.67
1.69
0.86
0.32
0.09
0.07
0.07
-0.08
-0.47
-0.97
-1.39
-1.51
-1.26
-0.78
-0.29
-0.03
-0.07
-0.32
-0.60
-0.73
-0.71
-0.66
-0.75
-1.07
-1.57
-2.08
-2.45
-2.60
-2.59
-2.57
-2.63
-2.80
-3.06
-3.33
-3.60
-3.87
-4.17
-4.50
-4.83
-5.11
-5.31
-5.53
-5.81
-6.21
-6.64
-6.89
-6.74
-6.02
-4.73
-3.07
-1.33
0.23
1.43
2.22
2.69
2.96
3.13
3.28
3.41
3.49
3.54
3.54
3.50
3.42
3.28
3.10
2.91
2.77
2.69
2.68
2.70
2.78
2.93
3.20
3.63
4.14
4.57
4.73
4.49
3.89
3.10
2.37
1.93
1.84
2.02
2.26
2.33
2.12
1.65
1.05
0.47
0.02
-0.26
-0.41
-0.47
-0.47
-0.46
-0.47
-0.55
-0.78
-1.16
-1.64
-2.06
-2.23
-2.09
-1.70
-1.24
-0.94
-0.95
-1.27
-1.84
-2.51
-3.16
-3.70
-4.14
-4.48
-4.77
-5.03
-5.27
-5.47
-5.64
-5.80
-5.98
-6.18
-6.44
-6.68
-6.82
-6.66
-6.07
-4.94
-3.30
-1.33
0.67
2.39
3.60
4.23
4.38
4.25
4.05
3.89
3.81
3.78
3.80
3.88
4.03
4.24
4.42
4.48
4.33
4.01
3.61
3.29
3.17
3.26
3.54
3.89
4.22
4.42
4.43
4.21
3.80
3.29
2.81
2.52
2.48
2.66
2.92
3.12
3.15
3.00
2.73
2.40
2.05
1.66
1.18
0.62
0.04
-0.45
-0.75
-0.87
-0.90
-0.95
-1.16
-1.55
-2.01
-2.46
-2.77
-2.91
-2.94
-2.96
-3.02
-3.14
-3.28
-3.39
-3.48
-3.61
-3.86
-4.25
-4.73
-5.17
-5.48
-5.63
-5.73
-5.92
-6.30
-6.85
-7.39
-7.65
-7.39
-6.53
-5.17
-3.52
-1.89
-0.44
0.71
1.61
2.34
3.00
3.61
4.16
4.59
4.86
4.97
4.96
4.91
4.81
4.68
4.47
4.19
3.91
3.70
3.69
3.85
4.12
4.34
4.37
4.16
3.79
3.38
3.10
2.99
3.01
3.05
3.01
2.84
2.55
2.20
1.84
1.52
1.25
1.03
0.90
0.83
0.78
0.69
0.48
0.10
-0.42
-1.02
-1.60
-2.05
-2.27
-2.24
-2.00
-1.66
-1.38
-1.31
-1.53
-2.04
-2.74
-3.47
-4.11
-4.59
-4.90
-5.07
-5.10
-5.04
-4.97
-5.01
-5.28
-5.88
-6.71
-7.57
-8.14
-8.16
-7.55
-6.38
-4.87
-3.22
-1.62
-0.14
1.18
2.27
3.06
3.53
3.71
3.75
3.81
4.01
4.35
4.72
4.98
5.00
4.79
4.44
4.07
3.79
3.62
3.51
3.40
3.29
3.21
3.25
3.44
3.73
3.98
4.04
3.82
3.33
2.67
1.99
1.39
0.93
0.61
0.41
0.32
0.33
0.40
0.51
0.56
0.53
0.36
0.07
-0.34
-0.80
-1.21
-1.47
-1.51
-1.34
-1.04
-0.78
-0.71
-0.89
-1.23
-1.60
-1.85
-1.92
-1.87
-1.84
-1.92
-2.14
-2.42
-2.68
-2.90
-3.11
-3.40
-3.84
-4.40
-4.98
-5.45
-5.72
-5.82
-5.87
-6.01
-6.32
-6.74
-7.12
-7.23
-6.91
-6.10
-4.85
-3.29
-1.63
-0.06
1.25
2.21
2.82
3.17
3.40
3.63
3.89
4.14
4.29
4.31
4.25
4.23
4.34
4.59
4.89
5.07
5.02
4.72
4.29
3.90
3.68
3.67
3.82
4.02
4.16
4.16
4.05
3.86
3.64
3.43
3.20
2.92
2.54
2.09
1.63
1.30
1.19
1.31
1.59
1.87
1.96
1.74
1.20
0.48
-0.23
-0.73
-1.00
-1.08
-1.09
-1.16
-1.34
-1.58
-1.84
-2.03
-2.13
-2.14
-2.08
-1.98
-1.94
-2.04
-2.33
-2.78
-3.27
-3.64
-3.79
-3.72
-3.59
-3.57
-3.82
-4.35
-5.03
-5.71
-6.26
-6.66
-6.89
-6.97
-6.83
-6.38
-5.56
-4.40
-3.02
-1.64
-0.43
0.50
1.16
1.64
2.01
2.34
2.65
2.96
3.29
3.67
4.09
4.47
4.69
4.69
4.43
4.04
3.69
3.54
3.63
3.89
4.16
4.32
4.29
4.09
3.82
3.57
3.38
3.25
3.10
2.87
2.48
1.94
1.31
0.70
0.21
-0.10
-0.24
-0.28
-0.32
-0.45
-0.71
-1.11
-1.58
-2.04
-2.41
-2.57
-2.49
-2.18
-1.74
-1.31
-1.03
-0.97
-1.11
-1.32
-1.53
-1.67
-1.75
-1.82
-1.89
-1.96
-1.98
-1.92
-1.84
-1.85
-2.07
-2.59
-3.34
-4.19
-4.98
-5.60
-6.01
-6.18
-6.05
-5.53
-4.52
-3.05
-1.30
0.41
1.74
2.50
2.66
2.43
2.09
1.87
1.89
2.09
2.37
2.56
2.62
2.58
2.54
2.60
2.79
3.06
3.32
3.48
3.52
3.50
3.51
3.65
3.91
4.24
4.49
4.50
4.21
3.63
2.94
2.33
1.94
1.79
1.74
1.57
1.13
0.43
-0.36
-0.94
-1.16
-1.02
-0.70
-0.46
-0.43
-0.58
-0.75
-0.79
-0.64
-0.37
-0.17
-0.20
-0.50
-0.97
-1.45
-1.74
-1.77
-1.57
-1.25
-0.98
-0.87
-0.96
-1.18
-1.44
-1.69
-1.89
-2.08
-2.31
-2.57
-2.82
-2.98
-3.01
-2.93
-2.85
-2.91
-3.19
-3.70
-4.35
-4.98
-5.45
-5.63
-5.48
-4.98
-4.18
-3.14
-1.91
-0.57
0.76
1.94
2.83
3.30
3.31
2.95
2.41
1.94
1.74
1.91
2.36
2.96
3.54
3.99
4.27
4.41
4.44
4.34
4.10
3.65
3.03
2.31
1.67
1.26
1.20
1.47
1.96
2.48
2.86
2.99
2.83
2.46
2.00
1.56
1.20
0.94
0.75
0.58
0.42
0.26
0.13
0.05
0.02
-0.03
-0.15
-0.40
-0.74
-1.06
-1.22
-1.18
-0.96
-0.71
-0.54
-0.50
-0.53
-0.50
-0.34
-0.07
0.16
0.21
-0.03
-0.50
-1.00
-1.36
-1.46
-1.34
-1.18
-1.16
-1.41
-1.90
-2.50
-3.00
-3.27
-3.27
-3.05
-2.72
-2.38
-2.11
-2.00
-2.15
-2.62
-3.42
-4.44
-5.43
-6.04
-6.03
-5.31
-4.02
-2.47
-1.01
0.11
0.85
1.28
1.54
1.75
1.95
2.15
2.30
2.40
2.45
2.44
2.36
2.21
2.01
1.80
1.63
1.55
1.53
1.59
1.71
1.88
2.11
2.36
2.56
2.63
2.49
2.18
1.80
1.47
1.30
1.28
1.31
1.30
1.18
0.98
0.77
0.63
0.60
0.62
0.64
0.61
0.49
0.34
0.20
0.14
0.16
0.24
0.30
0.25
0.06
-0.27
-0.66
-1.00
-1.24
-1.40
-1.54
-1.79
-2.19
-2.68
-3.09
-3.31
-3.24
-3.00
-2.75
-2.65
-2.72
-2.87
-2.94
-2.83
-2.63
-2.56
-2.83
-3.51
-4.47
-5.40
-5.97
-6.01
-5.53
-4.73
-3.80
-2.85
-1.89
-0.90
0.11
1.07
1.85
2.42
2.78
3.03
3.27
3.51
3.68
3.68
3.45
3.05
2.63
2.37
2.34
2.51
2.76
2.98
3.09
3.10
3.04
2.96
2.87
2.76
2.63
2.51
2.41
2.41
2.45
2.49
2.45
2.27
1.98
1.66
1.39
1.22
1.17
1.18
1.20
1.17
1.06
0.88
0.66
0.42
0.20
-0.01
-0.23
-0.44
-0.64
-0.82
-0.95
-1.04
-1.10
-1.17
-1.30
-1.50
-1.72
-1.90
-1.97
-1.92
-1.78
-1.63
-1.52
-1.49
-1.55
-1.65
-1.77
-1.88
-1.97
-2.10
-2.29
-2.57
-2.97
-3.43
-3.94
-4.47
-5.02
-5.58
-6.09
-6.43
-6.49
-6.21
-5.57
-4.68
-3.64
-2.55
-1.44
-0.33
0.75
1.73
2.52
3.04
3.33
3.45
3.54
3.67
3.83
3.97
4.02
3.95
3.79
3.59
3.37
3.17
3.02
2.92
2.91
2.96
3.04
3.09
3.08
3.01
2.94
2.94
3.07
3.30
3.58
3.80
3.85
3.68
3.32
2.84
2.36
1.99
1.79
1.77
1.91
2.14
2.37
2.53
2.54
2.35
1.92
1.29
0.49
-0.36
-1.13
-1.74
-2.13
-2.34
-2.44
-2.52
-2.64
-2.77
-2.88
-2.92
-2.91
-2.96
-3.16
-3.55
-4.05
-4.52
-4.84
-5.00
-5.10
-5.33
-5.80
-6.52
-7.34
-8.06
-8.44
-8.34
-7.71
-6.58
-5.10
-3.48
-1.96
-0.76
-0.02
0.30
0.35
0.35
0.50
0.89
1.43
1.91
2.16
2.11
1.88
1.66
1.62
1.80
2.07
2.18
1.97
1.43
0.76
0.21
0.01
0.18
0.56
0.91
1.05
0.95
0.69
0.43
0.29
0.33
0.48
0.61
0.58
0.28
-0.33
-1.15
-2.03
-2.77
-3.18
-3.18
-2.79
-2.16
-1.46
-0.85
-0.43
-0.20
-0.15
-0.23
-0.43
-0.69
-0.97
-1.24
-1.50
-1.77
-2.07
-2.37
-2.57
-2.59
-2.39
-2.05
-1.76
-1.73
-2.05
-2.61
-3.20
-3.56
-3.58
-3.31
-2.97
-2.82
-3.03
-3.64
-4.58
-5.68
-6.74
-7.59
-8.06
-8.03
-7.46
-6.38
-4.93
-3.27
-1.62
-0.15
1.07
2.05
2.88
3.65
4.37
5.01
5.47
5.67
5.57
5.21
4.69
4.16
3.75
3.58
3.69
4.05
4.52
4.95
5.23
5.28
5.18
5.03
5.01
5.19
5.59
6.13
6.66
7.03
7.11
6.90
6.47
5.96
5.48
5.12
4.85
4.62
4.39
4.17
4.00
3.90
3.88
3.88
3.85
3.75
3.62
3.53
3.53
3.61
3.68
3.60
3.26
2.68
1.96
1.34
1.02
1.07
1.38
1.72
1.83
1.54
0.86
-0.04
-0.95
-1.75
-2.37
-2.83
-3.21
-3.56
-3.96
-4.51
-5.28
-6.31
-7.52
-8.67
-9.41
-9.45
-8.63
-7.06
-5.03
-2.96
-1.16
0.16
1.02
1.48
1.68
1.71
1.68
1.68
1.80
2.07
2.41
2.70
2.81
2.74
2.59
2.54
2.70
3.08
3.53
3.91
4.12
4.20
4.24
4.31
4.38
4.33
4.09
3.59
2.93
2.25
1.69
1.31
1.06
0.85
0.59
0.30
0.09
0.13
0.50
1.19
2.01
2.72
3.06
2.95
2.49
1.92
1.53
1.45
1.69
2.06
2.33
2.34
2.02
1.44
0.75
0.09
-0.39
-0.57
-0.36
0.24
1.09
1.96
2.50
2.52
1.99
1.17
0.46
0.34
1.07
2.70
5.01
7.63
10.19
12.46
14.42
16.30
18.51
21.49
25.47
30.34
35.65
40.77
45.08
48.23
50.13
50.83
50.42
48.80
45.80
41.29
35.31
28.15
20.23
11.93
3.48
-4.97
-13.27
-21.06
-27.72
-32.55
-35.00
-34.93
-32.77
-29.44
-26.17
-24.09
-24.00
-26.16
-30.41
-36.15
-42.47
-47.99
-51.01
-49.94
-44.08
-34.27
-23.10
-14.15
-10.58
-13.76
-22.59
-34.01
-44.47
-51.45
-54.28
-53.96
-52.20
-50.38
-49.00
-47.76
-46.09
-43.53
-39.92
