1603716364.00
64.000000
-0.00
-0.00
-0.00
-0.00
-0.00
-0.00
-0.00
-0.00
-0.00
-0.00
0.00
0.01
0.01
-0.00
-0.03
-0.05
-0.05
0.00
0.13
0.36
0.66
1.01
1.37
1.72
2.06
2.40
2.79
3.24
3.80
4.42
5.06
5.66
6.20
6.68
7.15
7.68
8.31
9.14
10.09
11.04
11.88
12.56
13.14
13.76
14.65
15.96
17.91
20.32
22.90
25.38
27.58
29.57
31.68
34.32
37.81
42.54
48.15
54.10
59.83
64.97
69.58
74.14
79.34
85.71
93.76
103.00
112.62
121.73
129.77
136.75
143.30
150.75
157.77
166.64
177.95
191.79
206.97
220.57
228.25
225.36
208.53
176.87
132.76
80.05
23.07
-34.94
-92.44
-149.16
-205.23
-260.37
-313.74
-363.87
-409.83
-450.91
-486.50
-515.74
-537.23
-549.22
-549.96
-538.37
-514.21
-478.67
-433.88
-382.45
-327.02
-269.84
-212.63
-156.66
-102.95
-52.37
-5.90
35.58
71.43
101.35
125.50
144.38
158.69
169.15
176.37
180.75
182.57
182.07
179.51
175.23
169.65
163.18
156.15
148.81
141.30
133.69
126.02
118.33
110.69
103.16
95.80
88.68
81.83
75.25
68.95
62.95
57.25
51.86
46.78
42.03
37.59
33.45
29.61
26.07
22.81
19.83
17.11
14.67
12.48
10.54
8.83
7.35
6.07
4.97
4.05
3.26
2.62
2.09
1.66
1.33
1.05
0.81
0.59
0.37
0.18
0.01
-0.11
-0.17
-0.18
-0.18
-0.18
-0.21
-0.28
-0.37
-0.44
-0.46
-0.43
-0.36
-0.29
-0.27
-0.33
-0.49
-0.69
-0.87
-0.96
-0.92
-0.79
-0.66
-0.67
-0.90
-1.35
-1.92
-2.43
-2.69
-2.63
-2.33
-2.00
-1.93
-2.32
-3.18
-4.29
-5.28
-5.82
-5.74
-5.18
-4.53
-4.25
-4.72
-5.94
-7.57
-9.06
-9.93
-9.94
-9.23
-8.24
-7.46
-7.33
-8.12
-9.95
-12.77
-16.04
-18.55
-18.58
-14.50
-5.53
7.44
22.07
35.23
44.34
48.31
47.81
44.58
40.37
36.27
32.19
27.62
22.28
16.37
10.53
5.36
1.08
-2.50
-5.75
-8.91
-11.72
-13.61
-14.00
-12.64
-9.83
-6.37
-3.18
-1.03
-0.24
-0.63
-1.68
-2.85
-3.71
-4.09
-4.08
-3.90
-3.84
-4.07
-4.55
-5.08
-5.42
-5.34
-4.84
-4.03
-3.16
-2.46
-2.07
-1.98
-2.15
-2.47
-2.89
-3.38
-3.92
-4.47
-5.03
-5.56
-6.08
-6.62
-7.20
-7.80
-8.35
-8.81
-9.13
-9.35
-9.53
-9.75
-10.06
-10.47
-10.98
-11.57
-12.31
-13.31
-14.72
-16.65
-19.07
-21.80
-24.44
-26.45
-27.27
-26.34
-23.41
-18.56
-12.24
-5.20
1.75
7.91
12.91
16.67
19.38
21.28
22.60
23.43
23.78
23.61
22.96
21.95
20.77
19.63
18.69
18.04
17.71
17.66
17.85
18.19
18.54
18.74
18.66
18.22
17.40
16.29
14.96
13.46
11.78
9.88
7.76
5.51
3.29
1.25
-0.50
-2.01
-3.39
-4.81
-6.42
-8.20
-10.09
-11.96
-13.73
-15.38
-16.95
-18.50
-20.02
-21.53
-23.06
-24.79
-26.98
-29.82
-33.22
-36.66
-39.30
-40.19
-38.65
-34.50
-28.18
-20.53
-12.53
-5.03
1.41
6.53
10.26
12.62
13.73
13.76
12.95
11.61
10.03
8.53
7.37
6.68
6.39
6.28
6.03
5.37
4.23
2.70
1.05
-0.52
-1.96
-3.34
-4.84
-6.59
-8.60
-10.77
-13.01
-15.25
-17.50
-19.73
-21.77
-23.27
-23.75
-22.77
-20.09
-15.83
-10.36
-4.27
1.87
7.63
12.72
17.02
20.45
22.87
24.10
23.91
22.13
18.76
14.04
8.49
2.93
-1.75
-4.71
-5.40
-3.72
0.04
5.24
11.10
16.83
21.87
25.86
28.70
30.48
31.35
31.44
30.84
29.60
27.84
25.79
23.80
22.24
21.36
21.17
21.49
22.04
22.53
22.77
22.66
22.17
21.29
20.08
18.64
17.14
15.67
14.27
12.83
11.18
9.22
7.00
4.73
2.61
0.79
-0.79
-2.28
-3.84
-5.53
-7.31
-9.06
-10.69
-12.21
-13.68
-15.17
-16.73
-18.38
-20.24
-22.49
-25.39
-29.03
-33.14
-37.00
-39.58
-39.87
-37.30
-31.98
-24.67
-16.51
-8.58
-1.63
4.09
8.65
12.27
15.13
17.27
18.69
19.43
19.58
19.37
19.03
18.76
18.67
18.79
19.04
19.28
19.37
19.26
19.00
18.72
18.54
18.49
18.44
18.19
17.53
16.41
14.91
13.24
11.62
10.14
8.80
7.51
6.20
4.84
3.49
2.20
1.00
-0.07
-1.06
-2.03
-3.09
-4.35
-5.89
-7.67
-9.55
-11.32
-12.82
-13.98
-14.91
-15.80
-16.93
-18.60
-21.00
-24.19
-27.90
-31.54
-34.23
-35.11
-33.62
-29.80
-24.26
-17.93
-11.70
-6.13
-1.36
2.71
6.22
9.17
11.40
12.75
13.15
12.80
12.04
11.29
10.86
10.90
11.36
12.09
12.86
13.53
13.97
14.21
14.28
14.26
14.21
14.16
14.07
13.84
13.34
12.48
11.27
9.86
8.45
7.21
6.18
5.29
4.39
3.39
2.30
1.24
0.32
-0.46
-1.19
-2.01
-2.98
-4.04
-5.08
-5.96
-6.74
-7.55
-8.55
-9.84
-11.32
-12.83
-14.25
-15.55
-16.90
-18.41
-20.05
-21.52
-22.31
-21.91
-20.05
-16.78
-12.45
-7.63
-2.84
1.53
5.28
8.30
10.51
11.87
12.37
12.08
11.26
10.24
9.41
9.03
9.12
9.54
9.98
10.17
10.00
9.55
9.03
8.61
8.35
8.15
7.84
7.35
6.66
5.92
5.22
4.59
3.93
3.10
2.04
0.79
-0.50
-1.69
-2.69
-3.48
-4.13
-4.67
-5.08
-5.38
-5.62
-5.93
-6.48
-7.41
-8.77
-10.52
-12.56
-14.82
-17.20
-19.57
-21.68
-23.15
-23.62
-22.84
-20.84
-17.89
-14.43
-10.90
-7.63
-4.79
-2.41
-0.51
0.93
1.90
2.46
2.69
2.77
2.88
3.18
3.76
4.58
5.54
6.46
7.19
7.67
7.98
8.26
8.63
9.12
9.64
10.02
10.10
9.81
9.15
8.21
7.11
5.94
4.80
3.74
2.80
1.95
1.12
0.21
-0.87
-2.12
-3.48
-4.80
-5.97
-6.89
-7.61
-8.22
-8.89
-9.74
-10.88
-12.34
-14.11
-16.11
-18.20
-20.13
-21.57
-22.18
-21.67
-19.94
-17.13
-13.60
-9.81
-6.16
-2.89
-0.07
2.36
4.43
6.10
7.26
7.81
7.73
7.21
6.55
6.06
5.95
6.25
6.81
7.42
7.88
8.12
8.21
8.25
8.36
8.62
8.99
9.39
9.73
9.87
9.76
9.34
8.64
7.75
6.80
5.95
5.28
4.76
4.28
3.66
2.77
1.66
0.44
-0.69
-1.63
-2.32
-2.84
-3.27
-3.74
-4.37
-5.26
-6.49
-8.08
-9.97
-12.03
-14.06
-15.86
-17.25
-18.05
-18.12
-17.33
-15.68
-13.34
-10.63
-7.92
-5.50
-3.50
-1.86
-0.42
0.93
2.20
3.32
4.14
4.55
4.54
4.23
3.82
3.52
3.50
3.80
4.40
5.15
5.93
6.64
7.22
7.68
7.99
8.15
8.16
8.04
7.81
7.53
7.19
6.79
6.32
5.75
5.09
4.36
3.57
2.73
1.89
1.05
0.29
-0.31
-0.72
-0.95
-1.13
-1.43
-1.99
-2.84
-3.93
-5.10
-6.23
-7.31
-8.42
-9.67
-11.11
-12.53
-13.59
-13.94
-13.33
-11.81
-9.63
-7.12
-4.60
-2.23
-0.09
1.77
3.28
4.39
5.02
5.24
5.19
5.07
5.12
5.49
6.19
7.09
7.95
8.50
8.59
8.26
7.73
7.28
7.12
7.28
7.62
7.91
7.94
7.63
6.98
6.05
4.90
3.64
2.36
1.18
0.20
-0.59
-1.24
-1.90
-2.68
-3.60
-4.57
-5.46
-6.13
-6.53
-6.75
-6.93
-7.28
-7.99
-9.19
-10.87
-12.84
-14.77
-16.21
-16.79
-16.29
-14.77
-12.50
-9.86
-7.19
-4.74
-2.58
-0.72
0.86
2.16
3.15
3.80
4.09
4.07
3.82
3.49
3.22
3.17
3.42
3.90
4.51
5.11
5.60
6.00
6.37
6.76
7.13
7.34
7.25
6.78
5.96
4.94
3.89
2.94
2.13
1.47
0.92
0.44
-0.03
-0.58
-1.32
-2.29
-3.43
-4.56
-5.48
-6.05
-6.25
-6.26
-6.38
-6.96
-8.25
-10.28
-12.89
-15.68
-18.15
-19.76
-20.14
-19.19
-17.09
-14.26
-11.21
-8.36
-5.87
-3.71
-1.68
0.37
2.42
4.31
5.78
6.66
6.96
6.86
6.65
6.58
6.80
7.29
7.97
8.67
9.29
9.75
10.00
10.07
9.98
9.75
9.41
9.00
8.53
8.03
7.52
6.99
6.42
5.80
5.06
4.20
3.27
2.29
1.31
0.30
-0.80
-2.06
-3.46
-4.91
-6.26
-7.35
-8.17
-8.82
-9.52
-10.48
-11.86
-13.70
-15.92
-18.37
-20.77
-22.78
-23.96
-23.94
-22.54
-19.81
-16.06
-11.82
-7.64
-3.96
-1.05
1.07
2.56
3.69
4.73
5.83
6.96
7.96
8.64
8.90
8.82
8.62
8.58
8.91
9.68
10.77
11.95
13.01
13.75
14.06
13.96
13.55
12.93
12.20
11.38
10.40
9.27
7.97
6.61
5.33
4.22
3.34
2.66
2.10
1.54
0.89
0.05
-0.99
-2.26
-3.72
-5.31
-6.98
-8.68
-10.39
-12.15
-14.05
-16.21
-18.72
-21.57
-24.52
-27.10
-28.77
-29.01
-27.56
-24.52
-20.24
-15.27
-10.11
-5.17
-0.70
3.17
6.33
8.75
10.40
11.31
11.60
11.47
11.17
10.93
10.96
11.32
11.93
12.66
13.35
13.94
14.42
14.84
15.18
15.43
15.50
15.41
15.18
14.87
14.49
13.98
13.21
12.06
10.47
8.48
6.25
3.97
1.89
0.16
-1.18
-2.19
-3.04
-3.88
-4.82
-5.90
-7.10
-8.40
-9.80
-11.38
-13.20
-15.38
-17.97
-20.96
-24.14
-27.08
-29.20
-29.84
-28.59
-25.38
-20.63
-15.03
-9.32
-4.09
0.34
3.90
6.63
8.55
9.71
10.17
10.10
9.77
9.51
9.55
9.99
10.74
11.60
12.38
13.00
13.53
14.13
14.87
15.70
16.37
16.57
16.08
14.95
13.42
11.84
10.43
9.20
7.96
6.41
4.35
1.79
-1.08
-4.00
-6.71
-9.04
-10.89
-12.27
-13.21
-13.84
-14.43
-15.37
-17.03
-19.63
-23.07
-26.84
-30.09
-31.91
-31.60
-28.93
-24.15
-17.93
-11.12
-4.47
1.46
6.43
10.37
13.30
15.29
16.41
16.75
16.47
15.79
14.99
14.32
13.95
13.94
14.26
14.80
15.48
16.22
16.97
17.64
18.10
18.19
17.79
16.82
15.35
13.50
11.43
9.24
6.97
4.55
1.92
-0.90
-3.78
-6.49
-8.77
-10.45
-11.58
-12.42
-13.39
-14.95
-17.44
-20.95
-25.24
-29.72
-33.56
-35.84
-35.79
-33.01
-27.58
-20.13
-11.60
-2.98
4.91
11.62
17.07
21.34
24.55
26.71
27.76
27.69
26.68
25.09
23.41
22.07
21.30
21.05
21.12
21.29
21.47
21.68
22.00
22.42
22.79
22.87
22.39
21.21
19.35
16.93
14.13
11.12
8.00
4.79
1.49
-1.89
-5.31
-8.66
-11.84
-14.74
-17.31
-19.63
-21.85
-24.28
-27.22
-30.87
-35.21
-39.89
-44.16
-47.05
-47.63
-45.32
-40.11
-32.58
-23.66
-14.38
-5.53
2.42
9.28
15.04
19.70
23.24
25.65
27.03
27.57
27.61
27.52
27.56
27.83
28.24
28.55
28.58
28.29
27.81
27.38
27.19
27.28
27.49
27.53
27.10
26.07
24.48
22.48
20.23
17.84
15.32
12.64
9.81
6.93
4.21
1.85
-0.04
-1.51
-2.79
-4.18
-5.95
-8.21
-10.91
-13.86
-16.87
-19.78
-22.51
-25.11
-27.70
-30.44
-33.60
-37.40
-41.97
-47.13
-52.29
-56.42
-58.32
-57.01
-52.02
-43.70
-33.03
-21.38
-10.10
-0.14
8.00
14.27
18.91
22.33
24.91
26.97
28.67
30.06
31.14
31.88
32.28
32.40
32.29
32.03
31.70
31.40
31.26
31.38
31.77
32.34
32.86
33.07
32.71
31.64
29.81
27.30
24.33
21.18
18.13
15.33
12.75
10.26
7.64
4.82
1.82
-1.15
-3.91
-6.27
-8.10
-9.40
-10.19
-10.56
-10.65
-10.63
-10.62
-10.66
-10.79
-11.05
-11.62
-12.76
-14.85
-18.19
-22.92
-28.93
-35.78
-42.70
-48.67
-52.55
-53.38
-50.61
-44.30
-35.16
-24.37
-13.28
-3.08
5.44
11.92
16.42
19.23
20.77
21.44
21.51
21.23
20.79
20.35
20.11
20.18
20.58
21.22
21.93
22.58
23.15
23.73
24.41
25.21
25.99
26.49
26.38
25.48
23.82
21.69
19.51
17.65
16.27
15.22
14.19
12.85
11.06
8.94
6.76
4.75
2.99
1.36
-0.38
-2.44
-4.89
-7.63
-10.52
-13.38
-16.05
-18.37
-20.19
-21.39
-22.00
-22.20
-22.29
-22.69
-23.73
-25.57
-28.05
-30.77
-33.02
-34.04
-33.15
-29.99
-24.67
-17.72
-9.99
-2.39
4.31
9.69
13.65
16.33
17.97
18.77
18.87
18.31
17.19
15.69
14.09
12.74
11.89
11.66
11.97
12.59
13.27
13.83
14.17
14.32
14.32
14.21
14.00
13.63
13.08
12.26
11.14
9.67
7.87
5.83
3.73
1.78
0.12
-1.23
-2.43
-3.69
-5.21
-7.04
-9.07
-11.15
-13.06
-14.67
-15.89
-16.75
-17.38
-18.06
-19.18
-21.17
-24.23
-28.15
-32.26
-35.56
-37.08
-36.24
-33.03
-27.96
-21.82
-15.31
-8.92
-2.89
2.71
7.77
12.12
15.51
17.74
18.78
18.78
18.04
16.94
15.85
14.98
14.40
14.00
13.58
12.94
12.03
10.95
9.93
9.23
9.01
9.30
9.99
10.84
11.61
12.08
12.09
11.57
10.52
8.99
7.11
4.96
2.64
0.21
-2.29
-4.77
-7.20
-9.51
-11.72
-13.91
-16.18
-18.56
-20.93
-23.10
-24.87
-26.22
-27.28
-28.21
-29.07
-29.62
-29.44
-28.05
-25.20
-20.95
-15.56
-9.43
-2.85
3.86
10.31
15.90
19.85
21.41
20.27
16.75
11.89
7.13
3.95
3.39
5.74
10.46
16.33
21.89
25.83
27.42
26.61
23.96
20.28
16.33
12.56
9.16
6.16
3.61
1.70
0.70
0.79
1.93
3.80
5.80
7.25
7.54
6.29
3.45
-0.67
-5.47
-10.23
-14.27
-17.17
-18.82
-19.37
-19.14
-18.51
-17.83
-17.35
-17.28
-17.63
-18.32
-19.06
-19.43
-19.01
-17.60
-15.24
-12.22
-8.97
-5.82
-2.94
-0.30
2.20
4.59
6.77
8.52
9.61
9.91
9.46
8.47
7.26
6.15
5.39
5.04
4.98
5.02
4.97
4.83
4.67
4.70
5.02
5.61
6.29
6.85
7.13
7.05
6.62
5.82
4.63
3.00
0.99
-1.25
-3.44
-5.32
-6.71
-7.61
-8.13
-8.45
-8.69
-8.90
-9.03
-9.02
-8.87
-8.65
-8.57
-8.86
-9.71
-11.09
-12.73
-14.15
-14.78
-14.20
-12.24
-9.12
-5.29
-1.37
2.15
4.93
6.84
7.88
8.14
7.73
6.79
5.53
4.22
3.10
2.34
1.96
1.90
2.03
2.27
2.61
3.06
3.64
4.28
4.87
5.28
5.41
5.20
4.62
3.72
2.56
1.23
-0.18
-1.55
-2.82
-3.92
-4.86
-5.66
-6.37
-7.06
-7.79
-8.57
-9.41
-10.33
-11.34
-12.46
-13.58
-14.50
-14.90
-14.52
-13.24
-11.22
-8.81
-6.38
-4.20
-2.36
-0.76
0.72
2.12
3.39
4.35
4.90
4.96
4.62
4.00
3.32
2.77
2.47
2.49
2.80
3.31
3.90
4.42
4.76
4.81
4.56
4.06
3.45
2.92
2.59
2.52
2.60
2.66
2.49
1.96
1.04
-0.22
-1.73
-3.33
-4.91
-6.36
-7.59
-8.65
-9.64
-10.74
-12.07
-13.61
-15.11
-16.20
-16.47
-15.72
-13.98
-11.57
-8.95
-6.54
-4.57
-3.04
-1.79
-0.64
0.52
1.67
2.72
3.54
4.09
4.41
4.61
4.79
5.00
5.22
5.40
5.53
5.60
5.67
5.82
6.10
6.46
6.83
7.08
7.10
6.83
6.27
5.50
4.62
3.71
2.83
1.94
1.02
0.02
-1.08
-2.25
-3.41
-4.46
-5.35
-6.09
-6.79
-7.65
-8.87
-10.50
-12.42
-14.24
-15.54
-15.97
-15.43
-14.04
-12.11
-9.91
-7.60
-5.21
-2.76
-0.31
1.95
3.83
5.13
5.84
6.01
5.80
5.37
4.81
4.26
3.82
3.60
3.69
4.10
4.73
5.45
6.06
6.44
6.51
6.29
5.85
5.33
4.86
4.53
4.36
4.21
3.93
3.34
2.36
0.99
-0.60
-2.18
-3.53
-4.56
-5.29
-5.85
-6.41
-7.08
-7.94
-9.04
-10.41
-12.11
-14.12
-16.27
-18.18
-19.40
-19.51
-18.36
-16.12
-13.18
-9.96
-6.75
-3.68
-0.72
2.07
4.54
6.46
7.59
7.88
7.49
6.74
5.97
5.46
5.34
5.59
6.10
6.77
7.50
8.22
8.89
9.45
9.85
10.08
10.16
10.12
10.01
9.80
9.41
8.77
7.82
6.56
5.11
3.60
2.17
0.91
-0.14
-1.04
-1.87
-2.71
-3.61
-4.58
-5.62
-6.73
-7.98
-9.50
-11.37
-13.57
-15.84
-17.72
-18.67
-18.33
-16.58
-13.62
-9.84
-5.66
-1.44
2.53
5.97
8.65
10.36
11.04
10.81
9.97
8.94
8.10
7.72
7.82
8.30
8.98
9.66
10.25
10.73
11.16
11.57
11.97
12.27
12.35
12.05
11.26
9.98
8.29
6.32
4.23
2.15
0.16
-1.75
-3.61
-5.47
-7.34
-9.16
-10.81
-12.21
-13.31
-14.21
-15.13
-16.36
-18.19
-20.67
-23.56
-26.30
-28.17
-28.55
-27.16
-24.13
-19.93
-15.20
-10.44
-5.95
-1.79
2.07
5.64
8.82
11.45
13.36
14.54
15.07
15.18
15.12
15.12
15.33
15.80
16.50
17.36
18.26
19.07
19.67
20.03
20.15
20.14
20.09
20.00
19.75
19.10
17.85
15.93
13.49
10.84
8.30
6.04
4.00
1.94
-0.34
-2.89
-5.52
-7.94
-9.90
-11.36
-12.50
-13.59
-14.87
-16.45
-18.40
-20.76
-23.59
-26.84
-30.20
-33.06
-34.61
-34.17
-31.41
-26.54
-20.20
-13.22
-6.37
-0.14
5.21
9.59
13.03
15.55
17.24
18.24
18.69
18.76
18.63
18.46
18.42
18.64
19.16
19.90
20.65
21.20
21.39
21.26
20.95
20.64
20.43
20.28
19.99
19.39
18.39
17.02
15.44
13.74
11.99
10.17
8.24
6.22
4.22
2.42
0.93
-0.25
-1.29
-2.48
-4.03
-6.04
-8.41
-10.86
-13.13
-15.08
-16.73
-18.25
-19.88
-21.85
-24.29
-27.24
-30.59
-33.98
-36.83
-38.39
-38.02
-35.37
-30.58
-24.22
-17.08
-9.92
-3.23
2.73
7.87
12.13
15.40
17.58
18.67
18.82
18.33
17.57
16.86
16.40
16.29
16.54
17.06
17.77
18.55
19.30
19.98
20.57
21.06
21.44
21.61
21.44
20.80
19.63
18.02
16.15
14.25
12.52
10.99
9.60
8.22
6.72
5.09
3.41
1.82
0.47
-0.55
-1.27
-1.83
-2.50
-3.54
-5.14
-7.29
-9.81
-12.38
-14.68
-16.52
-17.89
-18.97
-20.03
-21.40
-23.35
-25.97
-29.06
-32.03
-34.06
-34.28
-32.09
-27.44
-20.87
-13.28
-5.67
1.23
7.03
11.64
15.11
17.46
18.70
18.91
18.31
17.27
16.22
15.51
15.33
15.63
16.23
16.91
17.54
18.10
18.63
19.15
19.62
19.95
20.05
19.85
19.32
18.49
17.35
15.86
14.01
11.81
9.34
6.76
4.23
1.93
-0.02
-1.56
-2.77
-3.85
-5.03
-6.51
-8.26
-10.12
-11.78
-13.05
-13.93
-14.70
-15.77
-17.51
-20.13
-23.56
-27.49
-31.45
-34.84
-36.97
-37.22
-35.15
-30.72
-24.32
-16.72
-8.85
-1.49
4.81
9.85
13.60
16.17
17.67
18.26
18.12
17.50
16.65
15.76
15.05
14.66
14.71
15.22
16.13
17.22
18.21
18.88
19.12
18.93
18.42
17.68
16.76
15.65
14.32
12.76
11.02
9.17
7.30
5.51
3.86
2.40
1.10
-0.15
-1.50
-3.09
-4.97
-7.06
-9.15
-11.04
-12.59
-13.74
-14.57
-15.19
-15.74
-16.42
-17.47
-19.22
-21.91
-25.54
-29.66
-33.39
-35.67
-35.60
-32.84
-27.67
-20.98
-13.86
-7.25
-1.64
2.92
6.66
9.88
12.70
15.06
16.81
17.76
17.93
17.50
16.79
16.13
15.79
15.83
16.13
16.54
16.88
17.08
17.16
17.13
16.99
16.69
16.16
15.43
14.59
13.77
13.02
12.26
11.28
9.90
8.06
5.91
3.72
1.76
0.19
-1.02
-2.01
-2.97
-4.01
-5.15
-6.39
-7.68
-9.02
-10.42
-11.84
-13.25
-14.64
-16.07
-17.65
-19.57
-21.97
-24.85
-27.95
-30.72
-32.43
-32.38
-30.17
-25.88
-20.04
-13.50
-7.13
-1.56
2.92
6.33
8.82
10.58
11.70
12.22
12.24
11.90
11.45
11.11
11.03
11.21
11.55
11.91
12.20
12.43
12.67
13.02
13.51
14.05
14.47
14.59
14.32
13.64
12.65
11.44
10.11
8.70
7.27
5.83
4.43
3.06
1.72
0.44
-0.74
-1.75
-2.55
-3.18
-3.80
-4.59
-5.66
-6.97
-8.34
-9.53
-10.42
-11.06
-11.66
-12.55
-13.98
-16.04
-18.57
-21.15
-23.21
-24.15
-23.51
-21.11
-17.11
-11.99
-6.43
-1.09
3.44
6.88
9.15
10.39
10.85
10.83
10.58
10.30
10.09
9.99
9.99
10.09
10.30
10.61
11.02
11.49
11.98
12.47
12.93
13.37
13.72
13.88
13.72
13.12
12.02
10.46
8.64
6.76
5.05
3.59
2.37
1.23
0.02
-1.41
-3.08
-4.89
-6.63
-8.11
-9.26
-10.11
-10.84
-11.66
-12.77
-14.28
-16.23
-18.56
-21.05
-23.39
-25.18
-25.98
-25.47
-23.50
-20.21
-15.92
-11.10
-6.23
-1.74
2.09
5.07
7.21
8.58
9.33
9.57
9.42
8.98
8.37
7.76
7.35
7.24
7.47
7.97
8.60
9.26
9.94
10.60
11.22
11.74
12.02
11.93
11.42
10.49
9.23
7.77
6.22
4.70
3.25
1.91
0.63
-0.60
-1.83
-3.10
-4.39
-5.69
-6.90
-7.96
-8.80
-9.44
-9.96
-10.60
-11.60
-13.20
-15.52
-18.40
-21.44
-24.08
-25.73
-25.99
-24.74
-22.15
-18.57
-14.40
-10.02
-5.74
-1.83
1.50
4.10
5.94
7.07
7.71
8.04
8.26
8.48
8.76
9.13
9.61
10.21
10.86
11.49
11.99
12.33
12.53
12.66
12.80
12.94
13.02
12.95
12.66
12.13
11.35
10.37
9.22
7.92
6.52
5.08
3.71
2.48
1.43
0.49
-0.40
-1.35
-2.36
-3.41
-4.40
-5.33
-6.24
-7.27
-8.58
-10.24
-12.27
-14.54
-16.94
-19.34
-21.64
-23.71
-25.33
-26.17
-25.91
-24.33
-21.39
-17.34
-12.58
-7.65
-3.00
1.03
4.26
6.65
8.26
9.16
9.44
9.18
8.53
7.71
6.99
6.62
6.68
7.14
7.82
8.50
8.99
9.21
9.19
9.05
8.97
9.09
9.48
10.06
10.60
10.87
10.69
10.04
9.07
8.02
7.05
6.14
5.14
3.89
2.30
0.45
-1.46
-3.22
-4.70
-5.92
-6.96
-7.88
-8.70
-9.41
-10.04
-10.71
-11.65
-13.06
-14.97
-17.18
-19.26
-20.66
-20.94
-19.91
-17.62
-14.35
-10.45
-6.26
-2.09
1.76
5.07
7.61
9.30
10.20
10.49
10.44
10.26
10.11
10.03
10.01
10.03
10.08
10.17
10.30
10.40
10.43
10.37
10.27
10.20
10.19
10.17
10.00
9.57
8.84
7.86
6.74
5.59
4.43
3.26
2.06
0.90
-0.14
-1.03
-1.84
-2.71
-3.77
-5.03
-6.35
-7.54
-8.47
-9.25
-10.11
-11.37
-13.19
-15.50
-17.95
-20.07
-21.43
-21.71
-20.84
-18.87
-15.96
-12.31
-8.17
-3.83
0.35
4.01
6.83
8.67
9.54
9.65
9.30
8.83
8.52
8.55
8.94
9.57
10.25
10.81
11.15
11.27
11.28
11.30
11.40
11.53
11.56
11.34
10.77
9.82
8.56
7.09
5.47
3.77
2.00
0.17
-1.70
-3.57
-5.43
-7.24
-9.00
-10.68
-12.24
-13.63
-14.87
-16.07
-17.40
-19.05
-21.11
-23.47
-25.80
-27.63
-28.51
-28.14
-26.48
-23.71
-20.14
-16.10
-11.92
-7.87
-4.18
-1.01
1.50
3.29
4.38
4.83
4.77
4.31
3.59
2.71
1.76
0.75
-0.35
-1.57
-2.91
-4.29
-5.58
-6.69
-7.66
-8.67
-10.04
-12.00
-14.64
-17.79
-21.09
-24.08
-26.36
-27.67
-27.92
-27.11
-25.31
-22.56
-18.94
-14.50
-9.41
-3.91
1.66
6.95
11.57
15.17
17.48
18.31
17.58
15.45
12.30
8.79
5.68
3.69
3.28
4.54
7.17
10.65
14.41
18.04
21.26
23.96
26.04
27.47
28.20
28.27
27.80
26.95
25.92
24.88
23.98
23.35
23.03
23.03
23.23
23.47
23.58
23.44
23.04
22.49
21.86
21.19
20.43
19.45
18.15
16.52
14.65
12.66
10.70
8.87
7.21
5.74
4.45
3.27
2.10
0.78
-0.81
-2.67
-4.67
-6.63
-8.39
-9.91
-11.34
-12.90
-14.82
-17.28
-20.34
-23.89
-27.65
-31.14
-33.71
-34.71
-33.70
-30.68
-26.01
-20.39
-14.52
-8.90
-3.74
0.93
5.13
8.81
11.84
14.14
15.73
16.74
17.37
17.78
18.08
18.25
18.31
18.26
18.11
17.94
17.79
17.69
17.65
17.64
17.58
17.39
16.97
16.27
15.29
14.07
12.70
11.25
9.78
8.30
6.79
5.22
3.55
1.77
-0.10
-1.98
-3.76
-5.33
-6.61
-7.63
-8.47
-9.28
-10.21
-11.35
-12.70
-14.18
-15.70
-17.24
-18.88
-20.77
-23.00
-25.50
-27.96
-29.82
-30.49
-29.52
-26.76
-22.45
-17.09
-11.28
-5.60
-0.41
4.05
7.68
10.46
12.40
13.53
13.96
13.80
13.28
12.66
12.16
11.90
11.90
12.09
12.40
12.81
13.36
14.08
14.94
15.86
16.68
17.24
17.46
17.32
16.83
16.05
14.98
13.63
11.99
10.07
7.93
5.71
3.54
1.58
-0.12
-1.57
-2.83
-3.98
-5.09
-6.16
-7.21
-8.22
-9.23
-10.30
-11.51
-12.95
-14.75
-16.99
-19.67
-22.62
-25.46
-27.58
-28.40
-27.48
-24.73
-20.44
-15.19
-9.59
-4.19
0.65
4.77
8.12
10.68
12.45
13.39
13.58
13.18
12.47
11.77
11.34
11.28
11.49
11.80
12.02
12.14
12.29
12.61
13.16
13.83
14.36
14.50
14.11
13.21
11.92
10.41
8.80
7.20
5.69
4.27
2.89
1.40
-0.34
-2.35
-4.49
-6.48
-8.03
-8.93
-9.25
-9.23
-9.17
-9.35
-9.97
-11.16
-13.00
-15.51
-18.51
-21.65
-24.32
-25.84
-25.66
-23.55
-19.70
-14.61
-9.00
-3.53
1.32
5.34
8.49
10.85
12.46
13.38
13.61
13.21
12.34
11.28
10.32
9.70
9.49
9.58
9.76
9.88
9.91
9.98
10.24
10.77
11.50
12.17
12.49
12.22
11.30
9.82
7.99
6.04
4.17
2.43
0.80
-0.83
-2.56
-4.39
-6.27
-8.03
-9.54
-10.69
-11.53
-12.16
-12.80
-13.65
-14.89
-16.61
-18.82
-21.36
-23.95
-26.13
-27.36
-27.18
-25.29
-21.75
-16.98
-11.67
-6.52
-2.04
1.59
4.48
6.89
9.03
10.90
12.37
13.26
13.54
13.33
12.94
12.68
12.72
13.02
13.38
13.59
13.48
13.12
12.69
12.46
12.55
12.92
13.28
13.31
12.75
11.53
9.84
7.96
6.18
4.62
3.19
1.75
0.15
-1.62
-3.46
-5.18
-6.67
-7.93
-9.09
-10.31
-11.67
-13.19
-14.76
-16.31
-17.88
-19.62
-21.68
-24.05
-26.36
-28.03
-28.40
-27.04
-23.97
-19.59
-14.58
-9.52
-4.82
-0.61
3.09
6.28
8.95
11.04
12.57
13.63
14.37
14.91
15.30
15.55
15.65
15.59
15.41
15.15
14.88
14.67
14.58
14.62
14.71
14.71
14.48
13.92
13.06
11.99
10.86
9.76
8.72
7.69
6.59
5.38
4.05
2.66
1.24
-0.20
-1.65
-3.11
-4.57
-5.98
-7.32
-8.60
-9.82
-11.09
-12.47
-14.06
-15.92
-18.09
-20.55
-23.16
-25.66
-27.62
-28.60
-28.19
-26.21
-22.77
-18.24
-13.16
-8.07
-3.41
0.55
3.69
6.02
7.59
8.54
9.03
9.19
9.20
9.19
9.30
9.61
10.15
10.84
11.55
12.15
12.57
12.84
13.07
13.32
13.55
13.61
13.33
12.60
11.48
10.16
8.88
7.76
6.79
5.83
4.74
3.51
2.21
1.00
-0.02
-0.81
-1.45
-2.06
-2.74
-3.58
-4.58
-5.70
-6.92
-8.14
-9.33
-10.45
-11.57
-12.81
-14.31
-16.12
-18.09
-19.85
-20.93
-20.90
-19.52
-16.83
-13.15
-8.90
-4.55
-0.50
2.97
5.68
7.51
8.46
8.63
8.23
7.56
6.92
6.57
6.63
7.06
7.70
8.37
8.92
9.28
9.52
9.75
10.07
10.52
11.03
11.49
11.75
11.72
11.35
10.65
9.72
8.66
7.56
6.50
5.45
4.38
3.22
1.94
0.57
-0.87
-2.32
-3.72
-4.98
-6.05
-6.90
-7.59
-8.28
-9.15
-10.35
-11.87
-13.50
-14.91
-15.74
-15.71
-14.74
-12.88
-10.29
-7.20
-3.83
-0.39
2.88
5.79
8.11
9.69
10.45
10.48
9.97
9.24
8.59
8.24
8.23
8.42
8.59
8.53
8.19
7.66
7.13
6.79
6.70
6.82
7.01
7.11
7.01
6.65
6.01
5.10
3.93
2.57
1.09
-0.42
-1.92
-3.44
-5.02
-6.68
-8.31
-9.76
-10.86
-11.55
-11.94
-12.32
-13.00
-14.24
-16.10
-18.43
-20.84
-22.89
-24.14
-24.28
-23.22
-21.07
-18.09
-14.58
-10.87
-7.20
-3.82
-0.88
1.55
3.49
5.09
6.49
7.76
8.92
9.83
10.41
10.68
10.75
10.80
10.94
11.19
11.43
11.56
11.51
11.32
11.09
10.85
10.59
10.27
9.82
9.24
8.58
7.81
6.89
5.74
4.35
2.79
1.22
-0.25
-1.56
-2.74
-3.87
-4.96
-5.95
-6.76
-7.38
-7.91
-8.56
-9.56
-11.06
-13.09
-15.51
-18.04
-20.29
-21.85
-22.34
-21.60
-19.64
-16.71
-13.19
-9.44
-5.80
-2.47
0.43
2.85
4.82
6.42
7.74
8.85
9.76
10.44
10.83
10.92
10.76
10.49
10.22
10.06
10.05
10.16
10.33
10.49
10.58
10.54
10.32
9.88
9.15
8.10
6.73
5.12
3.43
1.87
0.63
-0.18
-0.56
-0.67
-0.74
-0.97
-1.49
-2.29
-3.24
-4.17
-5.02
-5.77
-6.51
-7.33
-8.28
-9.32
-10.40
-11.53
-12.82
-14.44
-16.48
-18.82
-21.05
-22.62
-22.98
-21.86
-19.41
-16.03
-12.28
-8.59
-5.23
-2.23
0.46
2.90
5.06
6.86
8.29
9.32
10.03
10.49
10.79
10.96
11.01
10.93
10.72
10.44
10.15
9.98
10.01
10.26
10.67
11.09
11.38
11.44
11.20
10.66
9.86
8.83
7.63
6.34
5.04
3.82
2.71
1.68
0.65
-0.43
-1.57
-2.65
-3.53
-4.08
-4.27
-4.26
-4.26
-4.48
-5.02
-5.83
-6.82
-7.94
-9.25
-10.85
-12.74
-14.67
-16.19
-16.73
-15.93
-13.75
-10.56
-6.94
-3.44
-0.39
2.15
4.26
6.03
7.44
8.35
8.65
8.36
7.68
6.93
6.37
6.15
6.21
6.39
6.53
6.58
6.60
6.74
7.13
7.79
8.60
9.38
9.90
10.00
9.64
8.89
7.87
6.74
5.64
4.65
3.78
2.97
2.11
1.12
-0.03
-1.30
-2.58
-3.76
-4.78
-5.69
-6.54
-7.38
-8.24
-9.15
-10.18
-11.46
-13.09
-14.96
-16.77
-18.00
-18.16
-16.95
-14.41
-10.86
-6.84
-2.87
0.64
3.45
5.47
6.74
7.34
7.43
7.19
6.83
6.56
6.49
6.71
7.17
7.74
8.24
8.53
8.56
8.42
8.27
8.26
8.40
8.60
8.64
8.37
7.74
6.84
5.83
4.86
3.99
3.17
2.32
1.31
0.11
-1.30
-2.82
-4.33
-5.68
-6.76
-7.53
-8.08
-8.57
-9.21
-10.21
-11.68
-13.62
-15.88
-18.16
-20.07
-21.19
-21.24
-20.11
-17.96
-15.06
-11.78
-8.43
-5.22
-2.24
0.45
2.83
4.87
6.48
7.64
8.35
8.69
8.86
9.02
9.31
9.77
10.30
10.76
11.05
11.13
11.07
10.99
10.98
11.12
11.37
11.61
11.65
11.32
10.52
9.29
7.79
6.23
4.79
3.46
2.15
0.74
-0.80
-2.40
-3.88
-5.11
-6.03
-6.71
-7.32
-8.03
-8.98
-10.23
-11.90
-14.03
-16.66
-19.68
-22.77
-25.44
-27.08
-27.20
-25.62
-22.50
-18.35
-13.80
-9.40
-5.45
-2.04
0.89
3.42
5.54
7.19
8.34
9.01
9.35
9.57
9.88
10.41
11.15
11.98
12.70
13.16
13.27
13.12
12.92
12.88
13.13
13.63
14.17
14.48
14.33
13.65
12.48
11.00
9.37
7.69
6.04
4.44
2.92
1.53
0.28
-0.85
-1.96
-3.12
-4.42
-5.82
-7.25
-8.59
-9.74
-10.68
-11.49
-12.34
-13.45
-15.04
-17.16
-19.70
-22.27
-24.38
-25.52
-25.37
-23.84
-21.17
-17.71
-13.84
-9.84
-5.91
-2.15
1.34
4.40
6.92
8.80
10.08
10.88
11.40
11.82
12.26
12.74
13.19
13.55
13.76
13.82
13.82
13.81
13.86
13.97
14.12
14.28
14.41
14.47
14.35
13.92
13.08
11.78
10.16
8.45
6.89
5.62
4.61
3.68
2.62
1.35
-0.08
-1.47
-2.66
-3.53
-4.17
-4.76
-5.48
-6.41
-7.49
-8.63
-9.80
-11.11
-12.75
-14.81
-17.18
-19.45
-21.06
-21.47
-20.47
-18.14
-14.83
-10.99
-6.94
-2.95
0.84
4.23
7.04
9.12
10.41
11.04
11.21
11.14
11.04
10.97
11.01
11.13
11.32
11.54
11.72
11.80
11.80
11.77
11.85
12.15
12.64
13.14
13.39
13.15
12.30
10.97
9.40
7.86
6.54
5.44
4.43
3.36
2.08
0.56
-1.14
-2.84
-4.40
-5.68
-6.65
-7.39
-8.10
-8.95
-10.15
-11.83
-14.00
-16.61
-19.38
-21.94
-23.83
-24.63
-24.11
-22.29
-19.40
-15.80
-11.84
-7.79
-3.84
-0.13
3.17
5.92
8.04
9.51
10.38
10.78
10.81
10.57
10.16
9.73
9.41
9.31
9.44
9.72
10.03
10.27
10.41
10.49
10.59
10.73
10.88
10.87
10.52
9.67
8.34
6.71
5.06
3.61
2.47
1.60
0.80
-0.09
-1.18
-2.46
-3.86
-5.27
-6.60
-7.79
-8.81
-9.72
-10.63
-11.75
-13.35
-15.58
-18.41
-21.48
-24.27
-26.18
-26.74
-25.74
-23.26
-19.60
-15.14
-10.32
-5.53
-1.10
2.76
5.90
8.31
10.04
11.16
11.76
11.89
11.66
11.20
10.73
10.43
10.41
10.68
11.12
11.56
11.86
11.97
11.93
11.86
11.86
11.99
12.16
12.22
11.94
11.19
9.95
8.36
6.66
5.09
3.75
2.55
1.31
-0.17
-1.95
-3.92
-5.83
-7.42
-8.55
-9.27
-9.77
-10.30
-11.14
-12.45
-14.25
-16.48
-18.91
-21.29
-23.29
-24.61
-24.95
-24.13
-22.08
-18.93
-14.98
-10.63
-6.34
-2.44
0.87
3.56
5.71
7.41
8.67
9.48
9.84
9.81
9.55
9.24
9.05
9.06
9.29
9.71
10.27
10.92
11.57
12.14
12.52
12.65
12.56
12.33
12.04
11.72
11.28
10.57
9.49
8.02
6.34
4.69
3.32
2.33
1.65
1.13
0.54
-0.23
-1.21
-2.33
-3.49
-4.63
-5.72
-6.77
-7.77
-8.74
-9.69
-10.68
-11.85
-13.30
-15.03
-16.94
-18.73
-20.00
-20.35
-19.46
-17.21
-13.73
-9.38
-4.66
-0.11
3.77
6.67
8.52
9.44
9.67
9.48
9.09
8.67
8.38
8.35
8.68
9.37
10.32
11.30
12.10
12.62
12.85
12.93
13.01
13.18
13.42
13.63
13.65
13.34
12.60
11.42
9.85
8.05
6.17
4.35
2.64
1.01
-0.57
-2.16
-3.76
-5.29
-6.70
-7.92
-8.98
-9.92
-10.83
-11.82
-12.98
-14.42
-16.19
-18.24
-20.30
-21.98
-22.81
-22.44
-20.80
-18.10
-14.72
-11.11
-7.56
-4.16
-0.94
2.10
4.84
7.11
8.69
9.52
9.66
9.29
8.68
8.11
7.77
7.80
8.23
8.99
9.97
10.97
11.81
12.38
12.63
12.56
12.23
11.69
11.02
10.25
9.41
8.52
7.54
6.46
5.29
4.00
2.57
1.00
-0.74
-2.63
-4.59
-6.50
-8.22
-9.61
-10.64
-11.32
-11.80
-12.30
-13.09
-14.44
-16.52
-19.28
-22.37
-25.16
-26.95
-27.17
-25.62
-22.54
-18.45
-13.97
-9.57
-5.49
-1.83
1.42
4.18
6.39
8.03
9.17
10.00
10.68
11.32
11.89
12.31
12.48
12.40
12.14
11.85
11.63
11.54
11.63
11.91
12.35
12.92
13.49
13.90
14.00
13.65
12.82
11.60
10.18
8.76
7.51
6.43
5.43
4.35
3.09
1.67
0.18
-1.24
-2.54
-3.79
-5.15
-6.76
-8.65
-10.76
-12.92
-15.04
-17.09
-19.16
-21.31
-23.50
-25.50
-26.94
-27.42
-26.65
-24.53
-21.19
-16.92
-12.12
-7.23
-2.65
1.26
4.30
6.41
7.73
8.50
8.96
9.30
9.58
9.80
9.97
10.12
10.32
10.62
11.02
11.42
11.73
11.93
12.08
12.30
12.67
13.18
13.68
13.97
13.88
13.36
12.43
11.20
9.76
8.17
6.49
4.79
3.20
1.81
0.70
-0.18
-0.92
-1.70
-2.66
-3.86
-5.29
-6.86
-8.44
-9.89
-11.17
-12.32
-13.54
-15.04
-17.00
-19.36
-21.81
-23.82
-24.78
-24.25
-22.06
-18.40
-13.74
-8.68
-3.78
0.53
4.06
6.74
8.65
9.88
10.55
10.77
10.69
10.49
10.34
10.37
10.61
11.01
11.51
12.05
12.63
13.25
13.91
14.53
14.97
15.11
14.86
14.26
13.37
12.34
11.24
10.12
8.97
7.75
6.41
4.93
3.32
1.62
-0.08
-1.67
-3.05
-4.18
-5.11
-5.95
-6.82
-7.82
-8.98
-10.30
-11.84
-13.69
-15.92
-18.45
-20.95
-22.86
-23.54
-22.52
-19.68
-15.33
-10.05
-4.55
0.65
5.18
8.89
11.72
13.63
14.61
14.71
14.13
13.13
12.03
11.08
10.42
10.05
9.86
9.68
9.40
9.05
8.77
8.76
9.08
9.67
10.26
10.55
10.31
9.47
8.17
6.65
5.12
3.70
2.36
1.02
-0.45
-2.09
-3.88
-5.70
-7.41
-8.88
-10.04
-10.95
-11.76
-12.63
-13.74
-15.20
-17.11
-19.52
-22.40
-25.54
-28.48
-30.62
-31.31
-30.16
-27.16
-22.72
-17.47
-12.01
-6.81
-2.07
2.12
5.74
8.74
11.09
12.73
13.68
14.05
14.04
13.90
13.84
14.03
14.49
15.09
15.69
16.18
16.55
16.89
17.27
17.63
17.84
17.68
17.06
15.99
14.61
13.11
11.59
10.12
8.69
7.30
5.97
4.64
3.20
1.53
-0.49
-2.77
-5.10
-7.18
-8.78
-9.92
-10.76
-11.67
-12.96
-14.84
-17.35
-20.38
-23.70
-26.97
-29.77
-31.62
-32.09
-30.92
-28.06
-23.77
-18.50
-12.80
-7.14
-1.92
2.70
6.66
9.96
12.63
14.68
16.11
16.95
17.28
17.20
16.90
16.51
16.20
16.04
16.06
16.22
16.46
16.68
16.78
16.68
16.30
15.62
14.70
13.63
12.57
11.59
10.67
9.70
8.54
7.14
5.58
4.04
2.66
1.53
0.55
-0.47
-1.68
-3.15
-4.81
-6.52
-8.18
-9.72
-11.18
-12.63
-14.16
-15.89
-17.92
-20.32
-23.09
-26.00
-28.66
-30.54
-31.11
-30.03
-27.24
-23.04
-17.89
-12.32
-6.81
-1.71
2.78
6.54
9.48
11.56
12.77
13.22
13.08
12.61
12.09
11.77
11.77
12.07
12.53
12.97
13.22
13.23
13.09
13.00
13.15
13.63
14.32
14.97
15.26
14.95
13.97
12.44
10.62
8.76
7.05
5.57
4.31
3.26
2.36
1.57
0.83
0.06
-0.79
-1.78
-2.91
-4.15
-5.39
-6.52
-7.43
-8.13
-8.79
-9.73
-11.24
-13.48
-16.29
-19.25
-21.75
-23.20
-23.22
-21.68
-18.71
-14.57
-9.66
-4.41
0.71
5.28
9.01
11.75
13.55
14.52
14.81
14.54
13.84
12.88
11.94
11.29
11.14
11.51
12.22
12.98
13.51
13.71
13.65
13.50
13.39
13.30
13.09
12.57
11.59
10.15
8.39
6.45
4.52
2.67
0.94
-0.70
-2.31
-3.94
-5.60
-7.26
-8.80
-10.14
-11.16
-11.87
-12.37
-12.83
-13.50
-14.61
-16.33
-18.69
-21.51
-24.39
-26.75
-28.00
-27.68
-25.66
-22.17
-17.68
-12.75
-7.86
-3.30
0.80
4.39
7.48
10.01
11.91
13.14
13.70
13.70
13.36
12.91
12.55
12.37
12.33
12.33
12.28
12.16
12.00
11.87
11.81
11.79
11.74
11.58
11.23
10.64
9.82
8.78
7.57
6.26
4.89
3.52
2.15
0.72
-0.77
-2.36
-3.98
-5.54
-6.94
-8.09
-8.97
-9.59
-10.06
-10.58
-11.37
-12.69
-14.65
-17.21
-20.09
-22.81
-24.83
-25.67
-25.06
-22.96
-19.62
-15.38
-10.71
-6.00
-1.62
2.18
5.26
7.60
9.25
10.35
11.03
11.40
11.55
11.54
11.41
11.23
11.06
10.93
10.90
11.00
11.26
11.67
12.16
12.59
12.79
12.59
11.97
10.98
9.82
8.66
7.64
6.73
5.83
4.74
3.36
1.67
-0.20
-2.02
-3.56
-4.65
-5.31
-5.66
-5.95
-6.41
-7.14
-8.12
-9.21
-10.29
-11.34
-12.46
-13.83
-15.61
-17.77
-20.10
-22.18
-23.53
-23.75
-22.63
-20.19
-16.67
-12.47
-8.02
-3.75
0.03
3.14
5.50
7.19
8.29
8.93
9.24
9.33
9.31
9.29
9.34
9.48
9.68
9.93
10.20
10.54
11.01
11.62
12.30
12.87
13.18
13.10
12.70
12.13
11.54
11.03
10.52
9.90
9.02
7.88
6.54
5.14
3.80
2.57
1.44
0.37
-0.66
-1.68
-2.69
-3.68
-4.64
-5.52
-6.31
-7.01
-7.71
-8.51
-9.53
-10.85
-12.42
-14.06
-15.47
-16.31
-16.28
-15.19
-13.04
-10.05
-6.56
-2.94
0.50
3.55
6.09
8.06
9.36
9.91
9.69
8.84
7.62
6.41
5.56
5.29
5.64
6.46
7.49
8.43
9.04
9.22
8.98
8.48
7.93
7.45
7.07
6.73
6.31
5.73
5.01
4.24
3.49
2.77
1.97
0.93
-0.40
-1.96
-3.57
-5.00
-6.13
-6.99
-7.72
-8.44
-9.20
-9.94
-10.64
-11.33
-12.19
-13.44
-15.15
-17.20
-19.17
-20.55
-20.87
-19.93
-17.79
-14.74
-11.15
-7.39
-3.76
-0.50
2.21
4.26
5.65
6.45
6.82
6.96
7.02
7.09
7.22
7.40
7.58
7.68
7.67
7.55
7.41
7.39
7.59
8.05
8.66
9.23
9.57
9.52
9.05
8.20
7.11
5.94
4.85
3.94
3.25
2.66
1.97
0.96
-0.52
-2.46
-4.68
-6.89
-8.79
-10.29
-11.45
-12.54
-13.82
-15.49
-17.51
-19.66
-21.63
-23.09
-23.77
-23.48
-22.16
-19.84
-16.65
-12.91
-8.95
-5.14
-1.74
1.15
3.58
5.67
7.56
9.33
10.96
12.41
13.57
14.35
14.71
14.64
14.19
13.49
12.70
12.00
11.51
11.25
11.13
10.96
10.59
9.92
9.06
8.25
7.74
7.65
7.91
8.24
8.34
8.00
7.17
5.94
4.46
2.85
1.18
-0.48
-2.08
-3.50
-4.67
-5.55
-6.22
-6.80
-7.44
-8.29
-9.46
-11.06
-13.11
-15.48
-17.91
-19.96
-21.14
-21.12
-19.80
-17.38
-14.28
-11.00
-7.98
-5.48
-3.51
-1.93
-0.53
0.88
2.37
3.92
5.42
6.76
7.88
8.74
9.34
9.61
9.51
9.04
8.29
7.45
6.75
6.41
6.50
6.94
7.53
8.07
8.34
8.23
7.69
6.80
5.67
4.47
3.35
2.41
1.62
0.92
0.17
-0.70
-1.72
-2.80
-3.81
-4.58
-5.01
-5.06
-4.86
-4.64
-4.70
-5.24
-6.33
-7.78
-9.23
-10.23
-10.40
-9.58
-7.82
-5.39
-2.65
0.05
2.43
4.35
5.73
6.57
6.87
6.66
6.03
5.09
4.06
3.15
2.55
2.32
2.41
2.70
3.12
3.62
4.21
4.87
5.56
6.17
6.56
6.62
6.34
5.76
4.95
3.97
2.80
1.43
-0.13
-1.80
-3.40
-4.83
-5.99
-6.93
-7.70
-8.35
-8.88
-9.33
-9.81
-10.54
-11.72
-13.43
-15.41
-17.16
-18.13
-17.96
-16.70
-14.67
-12.33
-9.99
-7.68
-5.28
-2.68
0.04
2.63
4.75
6.17
6.86
6.99
6.83
6.69
6.78
7.18
7.82
8.53
9.09
9.36
9.35
9.22
9.17
9.33
9.66
10.02
10.18
9.97
9.33
8.32
7.03
5.54
3.93
2.25
0.55
-1.07
-2.56
-3.88
-5.03
-6.05
-6.98
-7.88
-8.81
-9.82
-10.98
-12.33
-13.87
-15.54
-17.18
-18.51
-19.19
-18.94
-17.57
-15.15
-11.93
-8.28
-4.59
-1.14
1.90
4.50
6.68
8.45
9.79
10.64
10.99
10.83
10.27
9.44
8.56
7.78
7.26
7.09
7.28
7.80
8.56
9.47
10.37
11.11
11.52
11.49
10.99
10.08
8.91
7.68
6.55
5.60
4.83
4.13
3.34
2.30
0.96
-0.66
-2.38
-3.97
-5.20
-5.99
-6.39
-6.62
-6.95
-7.59
-8.62
-10.04
-11.75
-13.69
-15.72
-17.64
-19.15
-19.89
-19.58
-18.13
-15.71
-12.66
-9.37
-6.13
-3.13
-0.40
2.03
4.10
5.67
6.66
7.04
6.95
6.67
6.47
6.61
7.12
7.90
8.75
9.45
9.89
10.08
10.16
10.29
10.56
10.96
11.34
11.49
11.26
10.58
9.56
8.40
7.34
6.53
6.01
5.72
5.50
5.23
4.81
4.24
3.53
2.75
1.94
1.13
0.35
-0.44
-1.28
-2.27
-3.48
-4.96
-6.66
-8.45
-10.09
-11.28
-11.74
-11.30
-9.92
-7.69
-4.87
-1.75
1.36
4.17
6.50
8.20
9.19
9.44
9.00
8.10
7.02
6.14
5.72
5.91
6.62
7.64
8.71
9.59
10.14
10.28
9.98
9.34
8.48
7.59
6.79
6.10
5.45
4.69
3.75
2.65
1.48
0.33
-0.79
-1.97
-3.29
-4.80
-6.39
-7.88
-9.07
-9.84
-10.25
-10.46
-10.73
-11.29
-12.33
-13.85
-15.70
-17.58
-19.11
-19.92
-19.76
-18.58
-16.48
-13.70
-10.53
-7.22
-3.99
-1.01
1.56
3.63
5.15
6.16
6.82
7.25
7.60
7.93
8.25
8.52
8.70
8.75
8.68
8.51
8.29
8.08
7.95
7.93
7.99
8.04
7.98
7.74
7.32
6.75
6.09
5.33
4.46
3.51
2.48
1.44
0.44
-0.50
-1.42
-2.36
-3.31
-4.24
-5.07
-5.76
-6.29
-6.78
-7.39
-8.30
-9.68
-11.54
-13.74
-15.99
-17.86
-18.94
-18.98
-17.88
-15.73
-12.76
-9.26
-5.51
-1.85
1.40
3.95
5.64
6.52
6.78
6.77
6.76
6.92
7.26
7.69
8.07
8.30
8.35
8.20
7.93
7.61
7.39
7.36
7.53
7.85
8.16
8.28
8.11
7.64
6.98
6.26
5.55
4.91
4.30
3.67
3.01
2.30
1.55
0.74
-0.11
-0.94
-1.69
-2.30
-2.79
-3.25
-3.86
-4.77
-6.03
-7.54
-9.10
-10.54
-11.76
-12.78
-13.64
-14.34
-14.75
-14.67
-13.94
-12.50
-10.46
-8.06
-5.57
-3.20
-1.09
0.69
2.14
3.19
3.81
4.02
3.91
3.70
3.60
3.80
4.30
5.00
5.67
6.14
6.37
6.45
6.56
6.83
7.27
7.79
8.24
8.53
8.61
8.52
8.33
8.06
7.72
7.33
6.90
6.44
5.94
5.34
4.57
3.60
2.48
1.36
0.40
-0.28
-0.70
-0.98
-1.31
-1.81
-2.59
-3.64
-4.96
-6.53
-8.34
-10.28
-12.12
-13.55
-14.27
-14.08
-12.99
-11.17
-8.88
-6.37
-3.75
-1.09
1.59
4.16
6.44
8.19
9.23
9.49
9.11
8.34
7.46
6.71
6.18
5.82
5.53
5.19
4.80
4.47
4.34
4.53
5.00
5.60
6.08
6.20
5.88
5.11
4.05
2.82
1.60
0.51
-0.34
-0.90
-1.23
-1.48
-1.87
-2.58
-3.62
-4.85
-5.99
-6.84
-7.37
-7.76
-8.31
-9.35
-11.02
-13.27
-15.86
-18.40
-20.41
-21.46
-21.27
-19.74
-17.06
-13.60
-9.87
-6.32
-3.24
-0.75
1.21
2.76
4.04
5.12
6.03
6.75
7.29
7.64
7.84
7.95
8.02
8.09
8.13
8.06
7.84
7.48
7.08
6.81
6.85
7.22
7.81
8.34
8.56
8.28
7.48
6.31
4.95
3.61
2.42
1.39
0.53
-0.24
-0.97
-1.73
-2.58
-3.53
-4.54
-5.55
-6.45
-7.17
-7.65
-7.93
-8.13
-8.45
-9.18
-10.50
-12.43
-14.69
-16.76
-18.02
-18.02
-16.66
-14.22
-11.17
-8.02
-5.12
-2.57
-0.36
1.55
3.14
4.39
5.25
5.73
5.93
5.95
5.89
5.82
5.76
5.72
5.66
5.57
5.41
5.23
5.08
5.05
5.26
5.74
6.45
7.25
7.91
8.21
8.04
7.40
6.49
5.50
4.63
3.95
3.37
2.79
2.07
1.20
0.18
-0.94
-2.12
-3.34
-4.54
-5.61
-6.48
-7.12
-7.59
-8.04
-8.68
-9.63
-10.93
-12.46
-13.96
-15.07
-15.44
-14.78
-13.01
-10.26
-6.88
-3.30
0.06
2.92
5.15
6.75
7.76
8.24
8.24
7.91
7.45
7.12
7.11
7.47
8.08
8.73
9.21
9.45
9.49
9.47
9.51
9.64
9.78
9.80
9.61
9.22
8.72
8.18
7.62
6.96
6.10
4.98
3.61
2.12
0.68
-0.59
-1.66
-2.62
-3.61
-4.72
-5.96
-7.28
-8.59
-9.91
-11.32
-12.93
-14.71
-16.43
-17.73
-18.17
-17.50
-15.75
-13.18
-10.23
-7.27
-4.50
-1.98
0.33
2.46
4.33
5.81
6.73
7.03
6.81
6.27
5.70
5.36
5.34
5.60
5.98
6.36
6.71
7.06
7.52
8.12
8.77
9.35
9.72
9.79
9.52
8.97
8.18
7.18
5.98
4.56
2.87
0.88
-1.34
-3.68
-5.96
-8.02
-9.80
-11.32
-12.69
-13.95
-15.16
-16.31
-17.43
-18.58
-19.76
-20.85
-21.54
-21.47
-20.38
-18.20
-15.19
-11.74
-8.24
-4.95
-1.99
0.64
2.95
4.96
6.68
8.15
9.45
10.65
11.70
12.51
12.99
13.10
12.92
12.63
12.42
12.42
12.63
12.95
13.28
13.52
13.63
13.60
13.39
12.95
12.18
10.99
9.33
7.28
4.94
2.49
0.10
-2.08
-3.95
-5.46
-6.62
-7.47
-8.11
-8.71
-9.45
-10.54
-12.14
-14.29
-16.91
-19.65
-22.05
-23.54
-23.69
-22.34
-19.68
-16.14
-12.22
-8.30
-4.56
-1.01
2.38
5.57
8.42
10.76
12.52
13.73
14.51
14.98
15.18
15.06
14.58
13.81
12.95
12.25
11.94
12.08
12.57
13.24
13.86
14.31
14.50
14.35
13.75
12.60
10.87
8.69
6.34
4.14
2.34
1.01
-0.00
-0.91
-1.93
-3.14
-4.54
-6.06
-7.66
-9.36
-11.21
-13.31
-15.65
-18.18
-20.73
-23.04
-24.78
-25.58
-25.12
-23.22
-19.90
-15.38
-10.10
-4.56
0.73
5.38
9.05
11.60
13.02
13.43
13.10
12.37
11.58
10.97
10.72
10.83
11.29
12.02
12.95
13.96
14.86
15.48
15.68
15.46
14.91
14.17
13.33
12.33
11.06
9.43
7.46
5.31
3.20
1.26
-0.51
-2.25
-4.10
-6.07
-8.02
-9.72
-11.02
-11.93
-12.72
-13.78
-15.46
-17.83
-20.66
-23.38
-25.28
-25.73
-24.38
-21.23
-16.62
-11.06
-5.10
0.79
6.20
10.84
14.47
16.95
18.25
18.52
17.97
16.90
15.60
14.30
13.18
12.39
12.02
12.10
12.57
13.34
14.24
15.08
15.65
15.75
15.25
14.14
12.49
10.52
8.48
6.62
5.09
3.84
2.67
1.30
-0.51
-2.79
-5.32
-7.69
-9.50
-10.56
-10.96
-11.07
-11.33
-12.09
-13.47
-15.40
-17.74
-20.28
-22.81
-25.01
-26.44
-26.63
-25.21
-22.10
-17.56
-12.11
-6.40
-0.95
3.92
8.10
11.55
14.23
16.01
16.73
16.34
14.99
13.04
10.98
9.28
8.21
7.86
8.15
8.89
9.89
10.93
11.84
12.44
12.65
12.45
11.95
11.26
10.49
9.63
8.65
7.50
6.14
4.64
3.04
1.40
-0.28
-1.97
-3.60
-5.06
-6.24
-7.05
-7.51
-7.73
-7.98
-8.53
-9.65
-11.45
-13.78
-16.19
-18.05
-18.70
-17.69
-14.96
-10.83
-5.89
-0.79
3.87
7.72
10.58
12.40
13.26
13.27
12.58
11.37
9.83
8.21
6.78
5.79
5.40
5.61
6.24
7.07
7.90
8.63
9.25
9.76
10.13
10.26
10.03
9.37
8.29
6.82
5.01
2.92
0.60
-1.84
-4.24
-6.42
-8.27
-9.75
-10.91
-11.83
-12.61
-13.39
-14.36
-15.72
-17.61
-19.98
-22.49
-24.56
-25.56
-25.02
-22.79
-19.11
-14.48
-9.50
-4.66
-0.29
3.49
6.71
9.40
11.55
13.11
13.98
14.12
13.66
12.83
11.94
11.29
11.02
11.11
11.45
11.87
12.26
12.57
12.74
12.73
12.47
11.89
10.99
9.86
8.64
7.49
6.49
5.56
4.50
3.10
1.24
-1.00
-3.34
-5.47
-7.11
-8.23
-8.94
-9.47
-10.04
-10.85
-12.04
-13.76
-16.10
-18.97
-22.00
-24.63
-26.14
-26.02
-24.08
-20.60
-16.11
-11.22
-6.44
-2.04
1.87
5.29
8.18
10.53
12.32
13.53
14.19
14.37
14.15
13.65
13.00
12.31
11.71
11.31
11.20
11.42
11.94
12.63
13.30
13.76
13.86
13.53
12.77
11.67
10.33
8.85
7.36
5.94
4.67
3.56
2.57
1.55
0.37
-1.04
-2.65
-4.27
-5.71
-6.81
-7.57
-8.16
-8.80
-9.74
-11.14
-13.06
-15.45
-18.19
-21.00
-23.46
-25.03
-25.23
-23.78
-20.73
-16.47
-11.59
-6.67
-2.19
1.60
4.61
6.87
8.42
9.33
9.69
9.59
9.19
8.67
8.20
7.96
8.04
8.48
9.17
9.96
10.67
11.18
11.48
11.63
11.71
11.71
11.58
11.19
10.47
9.43
8.19
6.92
5.76
4.78
3.98
3.29
2.64
1.93
1.09
0.07
-1.13
-2.42
-3.68
-4.80
-5.72
-6.49
-7.22
-8.01
-8.88
-9.80
-10.69
-11.58
-12.55
-13.75
-15.25
-16.94
-18.51
-19.54
-19.60
-18.45
-16.07
-12.69
-8.71
-4.58
-0.71
2.55
5.01
6.60
7.38
7.52
7.27
6.84
6.38
5.97
5.59
5.26
5.01
4.92
5.05
5.42
5.95
6.48
6.90
7.17
7.40
7.68
8.07
8.44
8.58
8.28
7.44
6.16
4.65
3.14
1.78
0.63
-0.31
-1.02
-1.49
-1.72
-1.76
-1.78
-1.93
-2.35
-3.03
-3.85
-4.65
-5.31
-5.86
-6.46
-7.36
-8.72
-10.53
-12.53
-14.30
-15.36
-15.41
-14.38
-12.40
-9.70
-6.53
-3.11
0.32
3.45
5.97
7.67
8.52
8.74
8.62
8.49
8.47
8.54
8.55
8.40
8.06
7.58
7.07
6.59
6.19
5.95
5.95
6.22
6.72
7.31
7.77
7.88
7.55
6.84
5.88
4.83
3.77
2.68
1.50
0.17
-1.24
-2.63
-3.83
-4.75
-5.41
-5.93
-6.50
-7.29
-8.38
-9.79
-11.48
-13.32
-15.18
-16.82
-18.01
-18.52
-18.24
-17.18
-15.48
-13.32
-10.90
-8.32
-5.64
-2.88
-0.10
2.57
4.95
6.78
7.89
8.18
7.77
6.98
6.23
5.86
6.01
6.60
7.35
7.99
8.36
8.46
8.41
8.32
8.25
8.18
8.06
7.84
7.50
6.97
6.21
5.20
3.99
2.70
1.45
0.28
-0.82
-1.92
-3.09
-4.27
-5.36
-6.23
-6.79
-7.05
-7.12
-7.17
-7.40
-8.08
-9.40
-11.45
-14.08
-16.86
-19.16
-20.31
-19.92
-17.97
-14.83
-11.09
-7.30
-3.86
-0.93
1.46
3.32
4.64
5.43
5.73
5.72
5.63
5.69
6.05
6.69
7.50
8.28
8.88
9.26
9.42
9.46
9.49
9.55
9.63
9.66
9.52
9.09
8.31
7.21
5.95
4.73
3.75
3.12
2.82
2.72
2.65
2.45
2.02
1.34
0.44
-0.57
-1.61
-2.61
-3.56
-4.47
-5.39
-6.32
-7.25
-8.19
-9.22
-10.47
-12.08
-14.05
-16.18
-18.08
-19.31
-19.52
-18.60
-16.66
-14.01
-11.00
-7.95
-5.10
-2.61
-0.56
1.08
2.36
3.33
4.06
4.59
4.98
5.31
5.72
6.25
6.90
7.56
8.03
8.20
8.07
7.73
7.33
7.00
6.82
6.84
7.05
7.43
7.90
8.29
8.42
8.14
7.40
6.26
4.87
3.41
2.06
0.95
0.13
-0.43
-0.82
-1.18
-1.63
-2.25
-3.02
-3.90
-4.79
-5.66
-6.48
-7.29
-8.15
-9.14
-10.32
-11.72
-13.23
-14.64
-15.68
-16.04
-15.53
-14.15
-12.04
-9.45
-6.68
-3.96
-1.45
0.72
2.50
3.87
4.86
5.52
5.90
6.06
6.03
5.90
5.77
5.74
5.91
6.30
6.87
7.55
8.25
8.88
9.41
9.79
9.99
9.97
9.79
9.50
9.18
8.81
8.34
7.67
6.74
5.56
4.28
3.03
1.95
1.08
0.42
-0.12
-0.59
-1.08
-1.67
-2.43
-3.39
-4.53
-5.79
-7.07
-8.35
-9.70
-11.17
-12.74
-14.21
-15.28
-15.64
-15.12
-13.76
-11.78
-9.44
-6.97
-4.47
-2.01
0.34
2.42
4.02
5.00
5.33
5.17
4.75
4.29
3.95
3.78
3.77
3.95
4.33
4.89
5.60
6.39
7.12
7.72
8.10
8.22
8.09
7.74
7.24
6.65
6.04
5.40
4.70
3.88
3.00
2.15
1.43
0.87
0.40
-0.17
-1.01
-2.20
-3.67
-5.21
-6.61
-7.72
-8.49
-9.01
-9.45
-10.04
-11.05
-12.60
-14.61
-16.73
-18.38
-19.03
-18.36
-16.40
-13.51
-10.22
-6.99
-4.09
-1.64
0.39
1.98
3.14
3.88
4.30
4.59
4.96
5.54
6.33
7.22
8.06
8.75
9.33
9.86
10.42
10.99
11.46
11.69
11.59
11.18
10.55
9.82
9.07
8.31
7.52
6.63
5.65
4.61
3.57
2.62
1.83
1.25
0.84
0.53
0.20
-0.25
-0.85
-1.58
-2.37
-3.17
-4.00
-4.94
-6.14
-7.66
-9.54
-11.70
-14.01
-16.26
-18.25
-19.74
-20.55
-20.52
-19.56
-17.70
-15.04
-11.80
-8.29
-4.83
-1.72
0.85
2.86
4.38
5.55
6.42
7.02
7.34
7.45
7.46
7.56
7.93
8.62
9.57
10.56
11.31
11.66
11.56
11.17
10.75
10.52
10.56
10.76
10.95
10.90
10.54
9.87
8.96
7.88
6.69
5.44
4.21
3.14
2.32
1.81
1.57
1.45
1.26
0.80
-0.12
-1.56
-3.49
-5.66
-7.75
-9.38
-10.36
-10.72
-10.75
-10.88
-11.49
-12.70
-14.39
-16.17
-17.53
-18.05
-17.48
-15.77
-13.09
-9.71
-5.94
-2.09
1.55
4.73
7.19
8.80
9.52
9.46
8.87
8.11
7.46
7.13
7.20
7.62
8.27
9.01
9.69
10.22
10.56
10.74
10.84
10.95
11.15
11.43
11.73
11.91
11.84
11.44
10.67
9.58
8.24
6.77
5.22
3.67
2.12
0.59
-0.88
-2.21
-3.34
-4.21
-4.90
-5.55
-6.40
-7.59
-9.16
-11.02
-13.02
-14.99
-16.79
-18.30
-19.35
-19.74
-19.26
-17.84
-15.58
-12.72
-9.58
-6.42
-3.37
-0.45
2.35
5.00
7.33
9.10
10.08
10.16
9.48
8.38
7.30
6.64
6.59
7.08
7.84
8.56
9.05
9.29
9.36
9.39
9.45
9.55
9.63
9.61
9.41
8.98
8.29
7.36
6.25
5.08
3.89
2.68
1.38
-0.06
-1.61
-3.15
-4.51
-5.59
-6.40
-7.10
-7.85
-8.72
-9.74
-10.90
-12.24
-13.88
-15.90
-18.22
-20.54
-22.35
-23.13
-22.53
-20.50
-17.27
-13.30
-9.07
-4.99
-1.33
1.78
4.32
6.31
7.84
8.98
9.77
10.30
10.64
10.85
11.01
11.14
11.24
11.30
11.31
11.31
11.39
11.59
11.94
12.36
12.73
12.92
12.76
12.20
11.20
9.85
8.33
6.84
5.57
4.63
3.99
3.50
2.98
2.26
1.28
0.09
-1.17
-2.37
-3.44
-4.39
-5.31
-6.31
-7.42
-8.64
-9.92
-11.27
-12.79
-14.60
-16.77
-19.16
-21.37
-22.85
-23.12
-21.92
-19.34
-15.73
-11.60
-7.45
-3.63
-0.35
2.32
4.39
5.92
6.98
7.65
8.02
8.19
8.29
8.44
8.70
9.05
9.40
9.65
9.73
9.75
9.86
10.14
10.59
11.02
11.19
10.92
10.20
9.16
8.03
7.01
6.19
5.55
4.99
4.42
3.79
3.12
2.48
1.91
1.37
0.75
-0.06
-1.14
-2.44
-3.82
-5.11
-6.16
-6.98
-7.65
-8.39
-9.37
-10.79
-12.74
-15.18
-17.94
-20.62
-22.73
-23.73
-23.28
-21.35
-18.17
-14.20
-9.92
-5.74
-1.90
1.48
4.34
6.63
8.31
9.40
9.94
10.07
9.94
9.74
9.57
9.48
9.40
9.28
9.07
8.76
8.45
8.20
8.13
8.26
8.58
9.04
9.52
9.88
9.90
9.45
8.46
7.06
5.50
4.09
3.02
2.34
1.90
1.52
1.03
0.31
-0.66
-1.82
-3.09
-4.35
-5.45
-6.29
-6.82
-7.13
-7.45
-8.09
-9.33
-11.27
-13.76
-16.35
-18.43
-19.39
-18.86
-16.80
-13.53
-9.53
-5.35
-1.38
2.18
5.20
7.61
9.36
10.40
10.73
10.51
9.95
9.36
9.00
9.02
9.41
10.01
10.58
10.93
10.99
10.87
10.77
10.88
11.26
11.77
12.22
12.36
12.04
11.23
9.99
8.39
6.55
4.59
2.66
0.90
-0.64
-1.94
-3.10
-4.25
-5.49
-6.83
-8.26
-9.72
-11.18
-12.65
-14.18
-15.82
-17.55
-19.30
-20.82
-21.84
-22.06
-21.30
-19.61
-17.18
-14.27
-11.15
-7.96
-4.74
-1.54
1.59
4.49
6.98
8.86
10.04
10.52
10.42
9.93
9.29
8.71
8.32
8.16
8.18
8.33
8.60
9.03
9.65
10.39
11.10
11.54
11.49
10.89
9.89
8.69
7.52
6.49
5.60
4.73
3.82
2.79
1.62
0.34
-1.01
-2.34
-3.53
-4.44
-5.00
-5.26
-5.45
-5.88
-6.85
-8.55
-10.98
-13.93
-17.03
-19.80
-21.76
-22.52
-21.85
-19.78
-16.58
-12.71
-8.68
-4.94
-1.76
0.77
2.74
4.30
5.63
6.82
7.89
8.82
9.57
10.13
10.48
10.62
10.58
10.41
10.24
10.19
10.36
10.78
11.38
12.01
12.53
12.81
12.81
12.48
11.83
10.87
9.63
8.16
6.59
5.00
3.48
2.03
0.64
-0.69
-1.95
-3.10
-4.06
-4.80
-5.35
-5.79
-6.25
-6.80
-7.49
-8.30
-9.19
-10.19
-11.42
-13.04
-15.12
-17.51
-19.79
-21.43
-21.87
-20.87
-18.47
-15.07
-11.20
-7.36
-3.91
-1.03
1.23
2.90
4.05
4.79
5.25
5.58
5.95
6.44
7.07
7.76
8.36
8.72
8.77
8.57
8.32
8.26
8.57
9.28
10.22
11.09
11.63
11.69
11.31
10.66
9.93
9.21
8.47
7.59
6.48
5.18
3.84
2.68
1.81
1.23
0.81
0.39
-0.12
-0.72
-1.39
-2.10
-2.90
-3.86
-5.01
-6.31
-7.66
-9.02
-10.42
-11.93
-13.61
-15.37
-16.92
-17.90
-17.93
-16.82
-14.60
-11.53
-8.00
-4.39
-1.01
1.90
4.25
6.00
7.15
7.75
7.93
7.87
7.78
7.87
8.26
8.93
9.74
10.50
11.00
11.14
10.96
10.60
10.30
10.22
10.36
10.59
10.68
10.42
9.73
8.69
7.50
6.38
5.48
4.81
4.28
3.70
2.88
1.74
0.30
-1.26
-2.73
-3.95
-4.84
-5.48
-6.03
-6.64
-7.39
-8.32
-9.44
-10.80
-12.43
-14.23
-15.96
-17.29
-17.88
-17.50
-16.15
-13.94
-11.11
-7.91
-4.54
-1.25
1.72
4.13
5.86
6.88
7.34
7.46
7.49
7.62
7.93
8.44
9.06
9.69
10.15
10.35
10.18
9.69
9.00
8.30
7.79
7.59
7.68
7.87
7.96
7.75
7.16
6.29
5.30
4.33
3.47
2.64
1.74
0.61
-0.76
-2.35
-4.01
-5.61
-6.98
-8.06
-8.82
-9.26
-9.51
-9.71
-10.07
-10.84
-12.18
-14.13
-16.47
-18.81
-20.62
-21.47
-21.12
-19.62
-17.22
-14.27
-11.11
-7.94
-4.88
-2.02
0.58
2.80
4.57
5.86
6.74
7.34
7.79
8.22
8.67
9.13
9.58
9.96
10.26
10.50
10.72
10.94
11.15
11.29
11.26
10.97
10.41
9.63
8.77
7.93
7.18
6.53
5.89
5.18
4.34
3.38
2.35
1.31
0.33
-0.55
-1.33
-2.05
-2.73
-3.40
-4.09
-4.84
-5.69
-6.65
-7.67
-8.65
-9.53
-10.29
-11.03
-11.85
-12.85
-13.96
-15.01
-15.74
-15.92
-15.41
-14.20
-12.36
-9.99
-7.25
-4.30
-1.42
1.07
2.91
4.00
4.40
4.36
4.21
4.21
4.50
5.12
5.97
6.94
7.86
8.58
8.97
8.97
8.63
8.12
7.61
7.29
7.21
7.34
7.54
7.67
7.63
7.34
6.78
5.95
4.96
3.95
3.13
2.62
2.42
2.40
2.35
2.12
1.65
0.99
0.21
-0.65
-1.59
-2.61
-3.64
-4.51
-5.14
-5.50
-5.70
-5.96
-6.45
-7.30
-8.57
-10.21
-12.12
-14.09
-15.81
-16.89
-16.97
-15.84
-13.56
-10.44
-6.95
-3.57
-0.66
1.61
3.22
4.24
4.81
5.06
5.09
4.95
4.72
4.50
4.40
4.53
4.90
5.41
5.87
6.14
6.16
6.06
6.05
6.29
6.79
7.39
7.84
7.95
7.68
7.15
6.51
5.85
5.15
4.34
3.31
2.12
0.92
-0.07
-0.69
-0.95
-0.98
-1.05
-1.36
-2.00
-2.89
-3.87
-4.74
-5.38
-5.77
-6.00
-6.21
-6.60
-7.34
-8.52
-10.09
-11.80
-13.28
-14.13
-14.04
-12.91
-10.89
-8.29
-5.43
-2.58
0.06
2.35
4.23
5.62
6.54
7.06
7.34
7.52
7.73
8.01
8.38
8.77
9.15
9.43
9.56
9.52
9.33
9.10
8.92
8.88
8.95
9.03
9.01
8.79
8.31
7.61
6.71
5.67
4.51
3.31
2.13
1.06
0.11
-0.75
-1.61
-2.55
-3.57
-4.60
-5.52
-6.21
-6.69
-7.05
-7.45
-8.10
-9.14
-10.63
-12.52
-14.60
-16.55
-18.01
-18.60
-18.13
-16.61
-14.24
-11.40
-8.42
-5.59
-3.04
-0.83
1.04
2.53
3.56
4.12
4.22
4.04
3.81
3.77
4.08
4.70
5.42
6.00
6.22
6.06
5.66
5.24
4.97
4.88
4.85
4.71
4.33
3.70
2.93
2.14
1.35
0.54
-0.43
-1.67
-3.24
-5.12
-7.22
-9.44
-11.65
-13.72
-15.56
-17.14
-18.51
-19.82
-21.23
-22.91
-24.94
-27.38
-30.20
-33.39
-36.93
-40.67
-44.30
-47.38
-49.39
-49.95
-48.88
-46.22
-42.14
-36.87
-30.61
-23.58
-15.97
-7.96
0.23
8.37
16.24
23.53
29.91
35.09
38.92
41.47
43.00
43.82
44.13
44.00
43.44
42.44
41.15
39.72
38.30
36.91
35.49
33.91
32.12
30.15
28.09
26.01
23.95
21.89
19.83
17.78
15.79
13.85
11.93
9.93
7.80
5.53
3.23
1.03
-0.93
-2.62
-4.09
-5.46
-6.85
-8.36
-10.05
-11.98
-14.17
-16.50
-18.80
-20.67
-21.73
-21.65
-20.29
-17.83
-14.64
-11.17
-7.83
-4.87
-2.39
-0.40
1.19
2.44
3.49
4.41
5.29
6.18
7.05
7.89
8.64
9.30
9.85
10.28
10.56
10.70
10.72
10.65
10.59
10.52
10.43
10.26
9.92
9.42
8.78
8.10
7.44
6.85
6.26
5.63
4.83
3.82
2.60
1.25
-0.09
-1.32
-2.36
-3.22
-3.97
-4.68
-5.37
-6.02
-6.60
-7.09
-7.53
-8.04
-8.74
-9.79
-11.25
-13.09
-15.18
-17.23
-18.86
-19.66
-19.30
-17.65
-14.84
-11.26
-7.45
-3.91
-0.99
1.21
2.77
3.90
4.74
5.35
5.71
5.80
5.69
5.55
5.61
6.02
6.77
7.67
8.40
8.70
8.52
7.99
7.41
7.07
7.12
7.50
8.01
8.37
8.38
7.97
7.24
6.33
5.45
4.68
4.04
3.47
2.83
2.00
0.92
-0.36
-1.70
-2.95
-3.96
-4.69
-5.19
-5.62
-6.15
-6.96
-8.15
-9.73
-11.60
-13.55
-15.28
-16.45
-16.74
-15.94
-14.00
-11.06
-7.41
-3.48
0.33
3.66
6.27
8.09
9.15
9.57
9.52
9.19
8.77
8.39
8.16
8.08
8.13
8.23
8.30
8.34
8.38
8.50
8.76
9.17
9.64
10.05
10.27
10.19
9.79
9.06
8.05
6.77
5.26
3.56
1.75
-0.07
-1.79
-3.32
-4.62
-5.71
-6.62
-7.41
-8.13
-8.83
-9.58
-10.53
-11.84
-13.63
-15.87
-18.28
-20.39
-21.68
-21.78
-20.55
-18.15
-14.92
-11.22
-7.36
-3.57
-0.08
2.97
5.42
7.20
8.35
9.00
9.31
9.45
9.53
9.61
9.73
9.87
10.04
10.17
10.25
10.27
10.28
10.34
10.49
10.76
11.07
11.28
11.21
10.71
9.70
8.22
6.42
4.53
2.74
1.16
-0.22
-1.51
-2.78
-4.07
-5.34
-6.47
-7.34
-7.90
-8.23
-8.45
-8.80
-9.47
-10.70
-12.63
-15.23
-18.23
-21.18
-23.46
-24.56
-24.23
-22.52
-19.73
-16.27
-12.46
-8.53
-4.64
-0.95
2.40
5.25
7.52
9.24
10.50
11.42
12.11
12.64
13.08
13.47
13.83
14.14
14.38
14.52
14.54
14.48
14.35
14.15
13.84
13.36
12.72
11.94
11.10
10.22
9.29
8.25
7.05
5.71
4.33
3.06
2.01
1.19
0.52
-0.18
-1.02
-2.04
-3.18
-4.32
-5.38
-6.37
-7.37
-8.50
-9.83
-11.40
-13.20
-15.21
-17.48
-20.01
-22.69
-25.20
-27.09
-27.86
-27.17
-24.97
-21.53
-17.29
-12.71
-8.15
-3.82
0.11
3.54
6.31
8.36
9.74
10.61
11.21
11.69
12.13
12.49
12.69
12.70
12.57
12.37
12.17
12.01
11.93
11.96
12.17
12.60
13.23
13.95
14.51
14.64
14.17
13.09
11.56
9.89
8.36
7.11
6.10
5.16
4.13
2.93
1.62
0.33
-0.82
-1.78
-2.59
-3.33
-4.09
-4.91
-5.78
-6.66
-7.53
-8.41
-9.33
-10.37
-11.59
-13.02
-14.70
-16.61
-18.67
-20.70
-22.40
-23.39
-23.29
-21.85
-19.08
-15.28
-10.88
-6.40
-2.19
1.52
4.67
7.24
9.26
10.67
11.50
11.77
11.56
11.03
10.32
9.62
9.04
8.66
8.49
8.53
8.76
9.18
9.81
10.66
11.63
12.55
13.25
13.56
13.43
12.90
12.06
11.00
9.77
8.36
6.78
5.08
3.37
1.83
0.58
-0.32
-0.96
-1.50
-2.16
-3.04
-4.17
-5.44
-6.72
-7.91
-8.98
-10.05
-11.23
-12.66
-14.37
-16.25
-18.08
-19.48
-20.05
-19.41
-17.37
-14.02
-9.69
-4.88
-0.18
3.98
7.30
9.71
11.25
12.03
12.20
11.91
11.34
10.67
10.08
9.66
9.44
9.42
9.54
9.77
10.06
10.39
10.71
11.02
11.27
11.44
11.46
11.24
10.67
9.65
8.17
6.35
4.35
2.39
0.66
-0.80
-2.03
-3.14
-4.24
-5.41
-6.65
-7.93
-9.21
-10.45
-11.64
-12.80
-13.99
-15.31
-16.86
-18.73
-20.86
-23.06
-24.92
-25.95
-25.73
-24.03
-20.94
-16.76
-11.99
-7.09
-2.43
1.74
5.31
8.21
10.37
11.74
12.36
12.35
11.97
11.54
11.28
11.28
11.48
11.73
11.89
11.98
12.06
12.25
12.55
12.89
13.13
13.19
13.00
12.58
11.93
11.05
9.93
8.54
6.95
5.25
3.54
1.87
0.21
-1.47
-3.15
-4.75
-6.12
-7.17
-7.94
-8.54
-9.21
-10.13
-11.45
-13.16
-15.23
-17.57
-20.14
-22.82
-25.43
-27.59
-28.84
-28.74
-27.06
-23.84
-19.46
-14.44
-9.33
-4.51
-0.20
3.55
6.71
9.23
11.06
12.17
12.65
12.71
12.64
12.65
12.87
13.25
13.66
13.92
13.96
13.79
13.53
13.31
13.25
13.37
13.60
13.83
13.85
13.55
12.82
11.69
10.26
8.70
7.16
5.74
4.43
3.15
1.79
0.29
-1.34
-2.99
-4.47
-5.66
-6.53
-7.15
-7.73
-8.53
-9.78
-11.57
-13.86
-16.53
-19.36
-22.15
-24.65
-26.56
-27.54
-27.27
-25.62
-22.62
-18.60
-13.97
-9.22
-4.68
-0.59
2.98
6.00
8.41
10.16
11.21
11.61
11.50
11.14
10.79
10.67
10.83
11.21
11.66
12.01
12.23
12.34
12.43
12.55
12.72
12.88
12.95
12.86
12.53
11.94
11.11
10.13
9.12
8.16
7.25
6.32
5.25
3.95
2.49
1.00
-0.37
-1.55
-2.62
-3.68
-4.80
-5.94
-6.99
-7.85
-8.52
-9.08
-9.71
-10.53
-11.65
-13.13
-15.00
-17.19
-19.47
-21.44
-22.62
-22.56
-21.03
-18.10
-14.13
-9.59
-4.95
-0.60
3.24
6.37
8.66
10.06
10.60
10.50
10.07
9.65
9.47
9.63
10.03
10.54
11.05
11.54
12.07
12.69
13.37
14.03
14.49
14.64
14.43
13.88
13.02
11.92
10.62
9.18
7.70
6.30
5.05
3.95
2.94
1.89
0.71
-0.66
-2.17
-3.74
-5.23
-6.54
-7.64
-8.54
-9.36
-10.26
-11.45
-13.07
-15.17
-17.61
-20.07
-22.06
-23.10
-22.80
-21.02
-17.89
-13.75
-9.08
-4.37
-0.01
3.74
6.77
9.01
10.50
11.29
11.48
11.24
10.76
10.29
10.06
10.18
10.62
11.20
11.69
11.91
11.83
11.59
11.38
11.34
11.45
11.50
11.28
10.60
9.47
8.01
6.38
4.69
3.00
1.35
-0.23
-1.68
-2.98
-4.21
-5.45
-6.82
-8.35
-9.93
-11.41
-12.67
-13.69
-14.56
-15.48
-16.64
-18.20
-20.23
-22.64
-25.19
-27.45
-28.91
-29.08
-27.62
-24.50
-19.99
-14.56
-8.82
-3.32
1.53
5.53
8.67
11.03
12.74
13.90
14.57
14.85
14.85
14.73
14.64
14.60
14.60
14.55
14.41
14.23
14.12
14.17
14.37
14.59
14.66
14.42
13.86
13.03
12.01
10.89
9.69
8.42
7.09
5.73
4.38
3.03
1.67
0.25
-1.22
-2.70
-4.10
-5.33
-6.40
-7.40
-8.46
-9.69
-11.15
-12.84
-14.79
-17.04
-19.65
-22.60
-25.71
-28.52
-30.45
-30.93
-29.63
-26.58
-22.13
-16.83
-11.29
-6.01
-1.35
2.51
5.55
7.84
9.52
10.73
11.63
12.29
12.75
13.01
13.04
12.80
12.31
11.68
11.08
10.78
10.99
11.72
12.81
13.91
14.67
14.89
14.59
13.89
12.94
11.83
10.55
9.15
7.71
6.42
5.39
4.66
4.09
3.51
2.74
1.79
0.75
-0.30
-1.28
-2.26
-3.32
-4.51
-5.81
-7.14
-8.41
-9.61
-10.78
-12.07
-13.66
-15.73
-18.34
-21.33
-24.33
-26.76
-28.03
-27.67
-25.56
-21.93
-17.24
-12.02
-6.73
-1.67
2.92
6.85
9.95
12.09
13.28
13.60
13.28
12.53
11.60
10.72
10.09
9.85
10.02
10.54
11.26
12.04
12.77
13.43
14.07
14.67
15.19
15.49
15.49
15.12
14.39
13.33
11.99
10.41
8.65
6.81
5.00
3.33
1.85
0.53
-0.69
-1.88
-3.06
-4.24
-5.37
-6.43
-7.41
-8.34
-9.24
-10.17
-11.26
-12.67
-14.57
-17.01
-19.82
-22.56
-24.61
-25.35
-24.36
-21.57
-17.31
-12.12
-6.68
-1.52
3.00
6.73
9.65
11.76
13.06
13.57
13.36
12.61
11.62
10.68
10.01
9.69
9.66
9.83
10.13
10.54
11.08
11.70
12.30
12.73
12.86
12.67
12.20
11.49
10.57
9.37
7.86
6.08
4.16
2.31
0.71
-0.56
-1.54
-2.35
-3.18
-4.15
-5.32
-6.65
-8.06
-9.41
-10.62
-11.66
-12.58
-13.51
-14.63
-16.15
-18.22
-20.90
-23.99
-26.99
-29.23
-30.00
-28.82
-25.58
-20.63
-14.60
-8.27
-2.35
2.65
6.50
9.22
11.03
12.21
13.05
13.68
14.12
14.31
14.24
13.98
13.67
13.39
13.17
12.96
12.72
12.49
12.39
12.54
12.96
13.53
14.02
14.24
14.04
13.42
12.43
11.18
9.78
8.36
6.95
5.59
4.23
2.85
1.44
0.08
-1.12
-2.10
-2.88
-3.61
-4.44
-5.50
-6.76
-8.11
-9.41
-10.58
-11.66
-12.78
-14.09
-15.74
-17.81
-20.25
-22.91
-25.45
-27.44
-28.42
-28.08
-26.32
-23.29
-19.32
-14.79
-10.07
-5.51
-1.39
2.07
4.73
6.62
7.88
8.73
9.39
9.97
10.50
10.96
11.35
11.75
12.16
12.58
12.89
12.95
12.74
12.39
12.14
12.18
12.63
13.33
14.00
14.29
13.99
13.08
11.73
10.19
8.67
7.23
5.82
4.35
2.82
1.27
-0.18
-1.45
-2.53
-3.46
-4.34
-5.19
-5.98
-6.69
-7.36
-8.08
-8.95
-10.06
-11.39
-12.88
-14.50
-16.26
-18.21
-20.31
-22.41
-24.14
-25.08
-24.84
-23.19
-20.16
-16.04
-11.27
-6.32
-1.59
2.64
6.23
9.10
11.20
12.49
12.97
12.76
12.10
11.27
10.55
10.11
9.99
10.11
10.38
10.73
11.13
11.53
11.93
12.28
12.55
12.73
12.76
12.58
12.12
11.35
10.29
9.06
7.79
6.60
5.50
4.45
3.41
2.34
1.19
-0.04
-1.36
-2.79
-4.26
-5.64
-6.75
-7.46
-7.73
-7.72
-7.75
-8.25
-9.56
-11.77
-14.66
-17.68
-20.20
-21.60
-21.56
-20.00
-17.15
-13.33
-8.92
-4.31
0.11
3.99
7.03
9.06
10.08
10.26
9.89
9.32
8.82
8.56
8.56
8.77
9.05
9.27
9.35
9.26
9.08
8.94
8.94
9.18
9.62
10.15
10.52
10.45
9.67
8.13
5.99
3.61
1.47
-0.11
-1.02
-1.45
-1.72
-2.15
-2.89
-3.92
-5.09
-6.20
-7.18
-8.01
-8.79
-9.67
-10.83
-12.41
-14.50
-16.97
-19.52
-21.75
-23.20
-23.54
-22.56
-20.25
-16.75
-12.35
-7.43
-2.46
2.09
5.89
8.73
10.60
11.62
11.94
11.73
11.19
10.51
9.89
9.51
9.42
9.58
9.87
10.18
10.43
10.64
10.84
11.02
11.12
11.06
10.82
10.41
9.91
9.37
8.77
8.05
7.11
5.88
4.40
2.77
1.16
-0.32
-1.62
-2.77
-3.85
-4.92
-6.02
-7.15
-8.32
-9.54
-10.86
-12.31
-13.91
-15.71
-17.74
-20.02
-22.41
-24.66
-26.32
-26.95
-26.21
-24.01
-20.57
-16.29
-11.64
-7.09
-2.97
0.46
3.10
4.97
6.24
7.15
7.90
8.55
9.04
9.22
9.02
8.48
7.75
7.02
6.40
5.89
5.47
5.15
4.94
4.82
4.76
4.64
4.39
3.98
3.50
3.06
2.75
2.58
2.46
2.28
1.97
1.54
1.05
0.56
0.13
-0.27
-0.71
-1.28
-2.03
-2.97
-4.03
-5.14
-6.20
-7.19
-8.13
-9.08
-10.13
-11.36
-12.83
-14.56
-16.51
-18.44
-19.99
-20.74
-20.31
-18.60
-15.72
-12.06
-8.08
-4.19
-0.68
2.32
4.80
6.79
8.34
9.46
10.18
10.53
10.58
10.51
10.49
10.71
11.26
12.05
12.90
13.61
14.04
14.21
14.20
14.14
14.11
14.12
14.12
14.05
13.83
13.40
12.63
11.50
10.04
8.41
6.79
5.34
4.12
3.09
2.17
1.33
0.56
-0.09
-0.71
-1.38
-2.26
-3.38
-4.62
-5.79
-6.69
-7.36
-8.04
-9.14
-10.94
-13.43
-16.19
-18.50
-19.63
-19.11
-16.92
-13.47
-9.37
-5.24
-1.47
1.77
4.50
6.78
8.59
9.84
10.46
10.51
10.16
9.70
9.37
9.30
9.45
9.66
9.82
9.88
9.95
10.15
10.57
11.20
11.89
12.45
12.70
12.58
12.07
11.21
10.06
8.69
7.13
5.48
3.82
2.26
0.88
-0.28
-1.23
-2.03
-2.72
-3.38
-4.04
-4.72
-5.44
-6.25
-7.27
-8.65
-10.46
-12.65
-14.92
-16.83
-17.85
-17.60
-15.94
-13.05
-9.31
-5.24
-1.28
2.28
5.25
7.53
9.07
9.86
9.93
9.43
8.65
7.89
7.42
7.34
7.57
7.94
8.29
8.58
8.89
9.34
9.99
10.73
11.34
11.58
11.27
10.40
9.09
7.53
5.91
4.38
3.03
1.84
0.74
-0.39
-1.62
-3.00
-4.48
-5.98
-7.41
-8.71
-9.87
-10.94
-12.01
-13.21
-14.67
-16.48
-18.65
-20.97
-23.10
-24.53
-24.77
-23.52
-20.78
-16.90
-12.45
-8.04
-4.12
-0.85
1.84
4.16
6.27
8.17
9.75
10.85
11.39
11.44
11.18
10.81
10.49
10.29
10.18
10.11
10.04
10.00
10.06
10.29
10.69
11.16
11.49
11.47
10.96
9.97
8.65
7.25
5.99
4.95
4.05
3.09
1.88
0.32
-1.50
-3.36
-5.00
-6.26
-7.17
-7.93
-8.80
-9.97
-11.50
-13.32
-15.34
-17.52
-19.80
-22.05
-23.99
-25.16
-25.13
-23.61
-20.65
-16.67
-12.25
-7.96
-4.14
-0.88
1.93
4.43
6.67
8.59
10.06
11.00
11.42
11.47
11.36
11.28
11.31
11.43
11.57
11.67
11.73
11.80
11.93
12.09
12.23
12.23
12.04
11.68
11.21
10.69
10.09
9.33
8.30
6.97
5.39
3.70
2.05
0.54
-0.84
-2.13
-3.39
-4.63
-5.85
-7.02
-8.16
-9.30
-10.49
-11.73
-13.04
-14.46
-16.11
-18.08
-20.38
-22.77
-24.74
-25.71
-25.21
-23.10
-19.65
-15.41
-11.00
-6.85
-3.16
0.05
2.80
5.05
6.77
7.94
8.66
9.16
9.64
10.22
10.88
11.50
11.93
12.12
12.11
12.01
11.94
11.97
12.09
12.27
12.42
12.47
12.37
12.07
11.57
10.87
10.01
9.03
7.98
6.91
5.84
4.78
3.69
2.53
1.28
-0.07
-1.44
-2.71
-3.76
-4.51
-4.94
-5.17
-5.33
-5.60
-6.11
-6.95
-8.17
-9.81
-11.87
-14.30
-16.89
-19.24
-20.86
-21.27
-20.16
-17.55
-13.71
-9.14
-4.36
0.19
4.24
7.59
10.18
11.95
12.91
13.12
12.74
11.96
11.06
10.27
9.78
9.65
9.85
10.26
10.74
11.13
11.36
11.47
11.52
11.56
11.59
11.49
11.14
10.39
9.21
7.69
6.03
4.47
3.17
2.17
1.34
0.45
-0.70
-2.21
-4.01
-5.88
-7.56
-8.81
-9.52
-9.78
-9.82
-9.98
-10.64
-12.06
-14.35
-17.30
-20.47
-23.23
-24.96
-25.23
-23.92
-21.19
-17.41
-13.07
-8.54
-4.12
-0.02
3.59
6.54
8.69
9.94
10.37
10.21
9.79
9.43
9.33
9.55
10.00
10.54
11.06
11.51
11.85
12.10
12.25
12.28
12.24
12.12
11.97
11.76
11.43
10.88
10.06
8.96
7.65
6.25
4.87
3.56
2.29
0.93
-0.64
-2.46
-4.45
-6.39
-8.07
-9.34
-10.23
-10.91
-11.63
-12.61
-13.96
-15.71
-17.83
-20.24
-22.76
-25.12
-26.87
-27.50
-26.63
-24.13
-20.19
-15.33
-10.19
-5.32
-1.07
2.45
5.30
7.58
9.37
10.69
11.56
12.05
12.27
12.34
12.35
12.31
12.21
12.02
11.77
11.56
11.50
11.68
12.10
12.70
13.31
13.75
13.83
13.45
12.58
11.33
9.90
8.53
7.39
6.52
5.82
5.08
4.12
2.84
1.29
-0.40
-2.09
-3.72
-5.28
-6.77
-8.20
-9.52
-10.70
-11.74
-12.73
-13.81
-15.14
-16.84
-18.96
-21.40
-23.94
-26.20
-27.73
-28.10
-26.99
-24.33
-20.35
-15.47
-10.28
-5.31
-0.97
2.51
5.11
6.91
8.09
8.80
9.21
9.39
9.45
9.51
9.72
10.18
10.84
11.57
12.16
12.48
12.54
12.47
12.42
12.47
12.55
12.52
12.25
11.76
11.14
10.49
9.81
9.01
7.98
6.69
5.22
3.75
2.44
1.36
0.43
-0.50
-1.53
-2.66
-3.78
-4.76
-5.53
-6.12
-6.69
-7.40
-8.35
-9.53
-10.87
-12.35
-13.99
-15.82
-17.79
-19.62
-20.88
-21.08
-19.90
-17.26
-13.39
-8.76
-3.88
0.76
4.80
8.01
10.28
11.61
12.12
11.95
11.35
10.53
9.74
9.23
9.19
9.62
10.43
11.33
12.11
12.62
12.90
13.12
13.44
13.88
14.28
14.36
13.89
12.79
11.20
9.34
7.50
5.81
4.31
2.92
1.56
0.20
-1.15
-2.41
-3.51
-4.46
-5.26
-5.95
-6.54
-7.03
-7.52
-8.16
-9.19
-10.81
-13.06
-15.74
-18.40
-20.46
-21.41
-20.94
-19.03
-15.94
-12.14
-8.06
-4.11
-0.50
2.66
5.37
7.59
9.25
10.27
10.60
10.34
9.74
9.10
8.68
8.63
8.86
9.22
9.54
9.72
9.80
9.85
9.93
10.01
10.01
9.85
9.50
9.03
8.50
7.88
7.09
6.00
4.53
2.80
1.03
-0.49
-1.57
-2.23
-2.70
-3.26
-4.15
-5.40
-6.86
-8.33
-9.58
-10.54
-11.30
-12.03
-12.99
-14.40
-16.34
-18.70
-21.17
-23.25
-24.39
-24.15
-22.36
-19.14
-14.91
-10.27
-5.81
-2.00
0.95
3.09
4.63
5.87
6.98
7.97
8.75
9.17
9.19
8.92
8.60
8.48
8.71
9.30
10.08
10.86
11.48
11.88
12.09
12.18
12.22
12.19
12.02
11.62
10.95
10.04
9.00
7.96
6.99
6.10
5.21
4.27
3.22
2.06
0.76
-0.69
-2.31
-4.02
-5.63
-6.97
-7.91
-8.50
-8.95
-9.51
-10.40
-11.75
-13.60
-15.91
-18.56
-21.29
-23.69
-25.28
-25.65
-24.59
-22.24
-18.98
-15.25
-11.44
-7.77
-4.33
-1.17
1.63
3.96
5.74
6.95
7.68
8.05
8.23
8.33
8.45
8.61
8.82
9.09
9.43
9.86
10.35
10.86
11.30
11.56
11.58
11.38
11.08
10.83
10.73
10.74
10.72
10.47
9.82
8.77
7.44
6.03
4.68
3.49
2.46
1.54
0.73
-0.01
-0.71
-1.42
-2.16
-2.91
-3.62
-4.23
-4.80
-5.45
-6.36
-7.64
-9.31
-11.22
-13.24
-15.23
-17.16
-18.92
-20.35
-21.14
-20.96
-19.64
-17.24
-14.08
-10.60
-7.20
-4.08
-1.28
1.22
3.45
5.29
6.60
7.31
7.50
7.40
7.33
7.51
8.01
8.72
9.43
9.96
10.25
10.36
10.43
10.60
10.89
11.23
11.52
11.64
11.55
11.25
10.78
10.18
9.49
8.72
7.89
7.01
6.06
5.01
3.84
2.51
1.06
-0.43
-1.86
-3.10
-4.09
-4.81
-5.31
-5.70
-6.09
-6.63
-7.39
-8.43
-9.77
-11.39
-13.20
-15.05
-16.70
-17.85
-18.21
-17.59
-15.91
-13.25
-9.84
-5.99
-2.06
1.63
4.80
7.25
8.91
9.78
9.99
9.72
9.19
8.60
8.14
7.94
8.05
8.47
9.07
9.72
10.25
10.54
10.57
10.40
10.22
10.14
10.20
10.29
10.22
9.78
8.91
7.71
6.40
5.24
4.34
3.67
3.03
2.21
1.07
-0.35
-1.93
-3.47
-4.86
-6.06
-7.09
-8.02
-8.89
-9.81
-10.88
-12.25
-14.01
-16.17
-18.49
-20.57
-21.89
-22.03
-20.80
-18.32
-14.91
-11.03
-7.09
-3.41
-0.20
2.41
4.39
5.78
6.71
7.35
7.87
8.41
8.99
9.59
10.16
10.60
10.87
10.93
10.81
10.59
10.40
10.34
10.47
10.73
11.06
11.32
11.46
11.39
11.08
10.47
9.52
8.28
6.83
5.33
3.92
2.67
1.54
0.46
-0.67
-1.88
-3.12
-4.30
-5.30
-6.07
-6.64
-7.13
-7.70
-8.53
-9.74
-11.33
-13.27
-15.49
-17.91
-20.38
-22.63
-24.29
-24.91
-24.23
-22.18
-19.02
-15.18
-11.17
-7.38
-4.01
-1.13
1.32
3.36
5.02
6.30
7.24
7.88
8.36
8.81
9.41
10.27
11.35
12.50
13.45
13.96
13.97
13.60
13.13
12.79
12.69
12.70
12.61
12.26
11.62
10.81
10.00
9.28
8.58
7.75
6.65
5.27
3.76
2.30
1.06
0.09
-0.71
-1.47
-2.30
-3.23
-4.22
-5.24
-6.33
-7.53
-8.91
-10.48
-12.14
-13.83
-15.52
-17.25
-19.07
-20.99
-22.84
-24.27
-24.90
-24.39
-22.64
-19.80
-16.23
-12.35
-8.55
-5.09
-2.11
0.36
2.37
3.98
5.24
6.19
6.86
7.32
7.65
7.96
8.35
8.86
9.43
9.94
10.31
10.52
10.69
10.96
11.40
11.91
12.31
12.35
11.94
11.13
10.13
9.16
8.37
7.78
7.26
6.69
6.00
5.18
4.26
3.30
2.30
1.26
0.15
-1.04
-2.27
-3.49
-4.62
-5.59
-6.37
-6.97
-7.46
-7.94
-8.57
-9.49
-10.82
-12.57
-14.63
-16.73
-18.50
-19.53
-19.51
-18.32
-16.05
-12.95
-9.40
-5.77
-2.37
0.60
3.02
4.85
6.09
6.78
7.02
6.95
6.78
6.67
6.76
7.07
7.52
8.01
8.43
8.74
8.96
9.18
9.47
9.85
10.28
10.67
10.89
10.84
10.47
9.78
8.86
7.78
6.67
5.59
4.55
3.49
2.35
1.09
-0.21
-1.40
-2.34
-3.01
-3.49
-4.01
-4.77
-5.80
-6.97
-8.06
-8.94
-9.67
-10.46
-11.53
-12.93
-14.47
-15.73
-16.23
-15.63
-13.80
-10.91
-7.31
-3.46
0.23
3.43
6.02
7.95
9.25
10.01
10.25
10.03
9.45
8.69
7.95
7.40
7.08
6.92
6.81
6.70
6.61
6.70
7.12
7.91
8.97
10.04
10.83
11.12
10.81
9.99
8.81
7.45
6.05
4.69
3.38
2.10
0.83
-0.46
-1.80
-3.19
-4.63
-6.08
-7.45
-8.64
-9.59
-10.29
-10.90
-11.69
-12.91
-14.72
-16.95
-19.14
-20.68
-20.99
-19.79
-17.21
-13.70
-9.86
-6.18
-2.97
-0.26
2.05
4.05
5.77
7.18
8.21
8.86
9.21
9.39
9.58
9.89
10.34
10.85
11.31
11.59
11.63
11.44
11.11
10.72
10.35
9.98
9.56
9.02
8.31
7.40
6.33
5.15
3.89
2.63
1.40
0.27
-0.76
-1.73
-2.72
-3.81
-5.07
-6.42
-7.71
-8.79
-9.59
-10.23
-10.92
-11.94
-13.46
-15.52
-17.93
-20.37
-22.40
-23.64
-23.78
-22.70
-20.46
-17.25
-13.40
-9.30
-5.36
-1.89
0.95
3.18
4.97
6.54
8.04
9.47
10.73
11.66
12.17
12.32
12.25
12.10
11.96
11.83
11.71
11.60
11.57
11.69
11.94
12.24
12.43
12.36
11.95
11.23
10.26
9.14
7.94
6.69
5.42
4.18
3.02
1.98
1.07
0.25
-0.60
-1.57
-2.71
-3.98
-5.28
-6.45
-7.42
-8.22
-8.99
-9.93
-11.22
-13.03
-15.34
-17.99
-20.64
-22.84
-24.13
-24.17
-22.80
-20.15
-16.52
-12.33
-8.03
-4.02
-0.56
2.20
4.26
5.74
6.80
7.62
8.29
8.82
9.17
9.37
9.49
9.67
10.03
10.57
11.20
11.72
12.00
12.02
11.92
11.87
12.01
12.31
12.60
12.68
12.35
11.54
10.37
9.01
7.65
6.40
5.25
4.13
2.98
1.78
0.61
-0.47
-1.40
-2.23
-3.08
-4.12
-5.45
-7.02
-8.69
-10.18
-11.33
-12.11
-12.68
-13.38
-14.51
-16.25
-18.57
-21.22
-23.74
-25.63
-26.44
-25.90
-23.98
-20.88
-16.97
-12.65
-8.30
-4.17
-0.41
2.86
5.57
7.66
9.14
10.07
10.62
10.95
11.15
11.25
11.19
11.01
10.80
10.71
10.91
11.42
12.15
12.90
13.46
13.71
13.65
13.34
12.88
12.30
11.59
10.71
9.61
8.28
6.77
5.19
3.69
2.41
1.42
0.69
0.09
-0.55
-1.30
-2.20
-3.13
-4.00
-4.72
-5.30
-5.86
-6.54
-7.52
-8.88
-10.67
-12.79
-15.08
-17.26
-18.99
-19.96
-19.87
-18.56
-16.04
-12.49
-8.25
-3.73
0.62
4.49
7.64
9.97
11.45
12.17
12.23
11.81
11.12
10.41
9.91
9.74
9.95
10.42
10.95
11.36
11.53
11.50
11.40
11.40
11.57
11.85
12.05
11.96
11.45
10.53
9.32
7.98
6.64
5.31
3.98
2.60
1.15
-0.38
-1.99
-3.67
-5.37
-7.00
-8.48
-9.71
-10.71
-11.63
-12.69
-14.14
-16.14
-18.59
-21.20
-23.47
-24.86
-24.97
-23.62
-20.89
-17.05
-12.47
-7.57
-2.76
1.58
5.16
7.82
9.56
10.55
11.03
11.21
11.24
11.18
11.03
10.82
10.58
10.35
10.18
10.12
10.23
10.52
11.01
11.65
12.28
12.73
12.80
12.40
11.55
10.35
8.98
7.56
6.10
4.59
2.98
1.23
-0.64
-2.53
-4.33
-5.88
-7.14
-8.11
-8.88
-9.61
-10.48
-11.57
-12.92
-14.55
-16.40
-18.49
-20.77
-23.14
-25.33
-26.95
-27.54
-26.78
-24.57
-21.06
-16.59
-11.58
-6.43
-1.47
2.97
6.68
9.47
11.33
12.33
12.65
12.55
12.26
11.98
11.85
11.95
12.25
12.66
13.07
13.35
13.50
13.60
13.72
13.88
14.02
13.95
13.53
12.69
11.47
9.99
8.37
6.76
5.23
3.81
2.44
1.04
-0.51
-2.26
-4.19
-6.22
-8.18
-9.95
-11.51
-12.97
-14.59
-16.62
-19.19
-22.22
-25.35
-28.00
-29.51
-29.37
-27.36
-23.61
-18.58
-12.90
-7.19
-1.95
2.53
6.08
8.73
10.56
11.74
12.48
12.99
13.43
13.85
14.25
14.54
14.64
14.53
14.26
13.95
13.75
13.77
14.06
14.52
15.01
15.34
15.38
15.04
14.29
13.12
11.58
9.73
7.67
5.53
3.43
1.43
-0.47
-2.29
-4.02
-5.62
-7.03
-8.22
-9.29
-10.45
-11.92
-13.94
-16.56
-19.68
-23.05
-26.26
-28.81
-30.17
-29.93
-27.92
-24.28
-19.39
-13.80
-8.09
-2.65
2.22
6.38
9.77
12.33
14.03
14.92
15.10
14.74
14.06
13.28
12.57
12.11
11.98
12.21
12.75
13.45
14.16
14.74
15.07
15.10
14.82
14.25
13.48
12.62
11.76
10.93
10.09
9.17
8.06
6.75
5.23
3.55
1.76
-0.12
-2.07
-4.01
-5.85
-7.45
-8.67
-9.48
-9.96
-10.31
-10.81
-11.70
-13.14
-15.11
-17.53
-20.21
-22.96
-25.49
-27.46
-28.47
-28.12
-26.16
-22.61
-17.78
-12.18
-6.40
-0.94
3.85
7.78
10.77
12.80
13.91
14.17
13.77
12.90
11.80
10.66
9.69
9.03
8.77
8.94
9.48
10.23
11.07
11.84
12.48
12.94
13.19
13.21
12.99
12.47
11.61
10.41
8.92
7.25
5.53
3.90
2.45
1.14
-0.12
-1.46
-2.95
-4.56
-6.16
-7.56
-8.62
-9.34
-9.90
-10.59
-11.75
-13.60
-16.14
-19.04
-21.68
-23.36
-23.42
-21.57
-17.91
-12.92
-7.28
-1.62
3.56
7.95
11.42
13.91
15.42
15.97
15.68
14.78
13.57
12.35
11.35
10.69
10.37
10.33
10.43
10.58
10.77
11.07
11.55
12.26
13.09
13.76
13.94
13.41
12.10
10.17
7.94
5.71
3.66
1.85
0.16
-1.47
-3.10
-4.69
-6.19
-7.58
-8.92
-10.32
-11.90
-13.76
-15.97
-18.53
-21.36
-24.26
-26.89
-28.84
-29.66
-29.03
-26.87
-23.37
-18.88
-13.82
-8.54
-3.32
1.61
6.06
9.77
12.53
14.25
14.96
14.87
14.27
13.48
12.74
12.22
11.99
12.00
12.20
12.48
12.76
13.03
13.30
13.63
14.01
14.38
14.58
14.40
13.68
12.31
10.36
8.02
5.57
3.25
1.20
-0.66
-2.43
-4.28
-6.25
-8.25
-10.13
-11.73
-13.03
-14.09
-15.10
-16.26
-17.77
-19.78
-22.34
-25.36
-28.48
-31.12
-32.59
-32.28
-29.93
-25.67
-20.08
-13.87
-7.77
-2.24
2.50
6.45
9.67
12.20
14.02
15.09
15.45
15.23
14.71
14.23
14.09
14.46
15.30
16.41
17.52
18.41
19.00
19.32
19.49
19.55
19.51
19.25
18.69
17.75
16.42
14.74
12.81
10.70
8.51
6.33
4.27
2.39
0.72
-0.82
-2.34
-3.91
-5.57
-7.24
-8.86
-10.39
-11.86
-13.33
-14.91
-16.63
-18.50
-20.54
-22.81
-25.41
-28.33
-31.34
-33.93
-35.40
-35.07
-32.55
-27.88
-21.63
-14.63
-7.81
-1.87
2.83
6.31
8.83
10.70
12.16
13.28
14.01
14.31
14.21
13.88
13.53
13.36
13.43
13.69
14.01
14.32
14.61
14.94
15.36
15.84
16.26
16.49
16.44
16.10
15.54
14.77
13.78
12.50
10.86
8.88
6.69
4.52
2.60
1.07
-0.05
-0.88
-1.61
-2.45
-3.52
-4.83
-6.29
-7.77
-9.13
-10.32
-11.38
-12.48
-13.86
-15.71
-18.12
-20.97
-23.92
-26.39
-27.77
-27.52
-25.37
-21.42
-16.16
-10.27
-4.47
0.74
5.08
8.53
11.17
13.06
14.27
14.81
14.73
14.19
13.42
12.68
12.19
12.08
12.36
12.96
13.74
14.58
15.43
16.21
16.92
17.49
17.81
17.76
17.18
16.00
14.25
12.13
9.90
7.84
6.10
4.68
3.43
2.16
0.70
-0.97
-2.72
-4.42
-5.94
-7.25
-8.43
-9.62
-10.87
-12.22
-13.68
-15.33
-17.27
-19.59
-22.20
-24.76
-26.74
-27.52
-26.68
-24.08
-19.95
-14.75
-9.07
-3.45
1.69
6.00
9.33
11.61
12.90
13.42
13.37
12.98
12.40
11.77
11.23
10.88
10.82
11.03
11.44
11.95
12.49
13.04
13.60
14.13
14.52
14.59
14.20
13.28
11.88
10.17
8.30
6.42
4.61
2.90
1.27
-0.29
-1.83
-3.39
-5.03
-6.74
-8.46
-10.12
-11.63
-12.98
-14.21
-15.41
-16.73
-18.28
-20.19
-22.48
-25.07
-27.71
-30.02
-31.48
-31.65
-30.25
-27.24
-22.86
-17.54
-11.78
-6.03
-0.66
4.09
8.04
11.13
13.36
14.80
15.57
15.81
15.67
15.28
14.79
14.35
14.06
13.98
14.10
14.38
14.73
15.14
15.59
16.07
16.49
16.69
16.49
15.77
14.55
12.99
11.31
9.65
8.02
6.33
4.49
2.53
0.58
-1.20
-2.73
-4.03
-5.26
-6.57
-8.03
-9.59
-11.16
-12.67
-14.12
-15.57
-17.11
-18.82
-20.76
-23.03
-25.66
-28.55
-31.40
-33.70
-34.87
-34.48
-32.42
-28.94
-24.55
-19.84
-15.30
-11.22
-7.78
-5.06
-3.13
-2.04
-1.72
-2.05
-2.86
-3.98
-5.29
-6.72
-8.22
-9.75
-11.27
-12.73
-14.08
-15.28
-16.26
-16.94
-17.23
-17.06
-16.36
-15.06
-13.12
-10.47
-7.08
-2.94
1.86
7.16
12.71
18.23
23.41
27.93
31.53
34.01
35.27
35.34
34.41
32.74
30.62
28.27
25.84
23.33
20.72
17.96
15.08
12.09
9.01
5.78
2.31
-1.43
-5.37
-9.18
-12.40
-14.46
-14.96
-13.71
-10.91
-6.98
-2.51
1.93
5.93
9.27
11.88
13.74
14.82
15.12
14.68
13.66
12.32
10.99
10.00
9.56
9.69
10.24
10.98
11.69
12.29
12.81
13.31
13.84
14.37
14.74
14.83
14.54
13.92
13.12
12.24
11.34
10.37
9.23
7.83
6.21
4.45
2.68
1.00
-0.55
-1.97
-3.29
-4.49
-5.56
-6.49
-7.31
-8.13
-9.09
-10.39
-12.21
-14.58
-17.37
-20.24
-22.70
-24.25
-24.49
-23.21
-20.49
-16.60
-11.95
-7.02
-2.25
1.99
5.46
8.04
9.77
10.77
11.21
11.21
10.89
10.31
9.61
8.93
8.43
8.21
8.31
8.63
9.08
9.56
10.05
10.57
11.12
11.59
11.80
11.55
10.70
9.25
7.39
5.40
3.56
2.03
0.82
-0.26
-1.43
-2.89
-4.67
-6.64
-8.55
-10.22
-11.52
-12.46
-13.19
-13.90
-14.83
-16.22
-18.25
-20.91
-23.95
-26.83
-28.91
-29.60
-28.62
-26.02
-22.16
-17.54
-12.59
-7.66
-3.01
1.14
4.60
7.27
9.20
10.52
11.41
11.97
12.23
12.17
11.80
11.27
10.82
10.67
10.90
11.42
12.03
12.51
12.73
12.71
12.52
12.28
12.04
11.80
11.51
11.09
10.43
9.47
8.15
6.49
4.59
2.58
0.60
-1.23
-2.86
-4.29
-5.54
-6.66
-7.69
-8.67
-9.64
-10.64
-11.68
-12.77
-13.94
-15.28
-16.90
-18.87
-21.09
-23.29
-24.98
-25.63
-24.82
-22.42
-18.61
-13.88
-8.82
-3.98
0.26
3.74
6.42
8.37
9.69
10.47
10.82
10.83
10.62
10.35
10.15
10.08
10.16
10.35
10.60
10.88
11.22
11.61
12.03
12.43
12.68
12.65
12.25
11.46
10.33
9.01
7.65
6.40
5.31
4.37
3.53
2.68
1.81
0.95
0.14
-0.59
-1.27
-2.00
-2.88
-3.97
-5.24
-6.60
-7.96
-9.25
-10.44
-11.58
-12.75
-14.02
-15.51
-17.30
-19.38
-21.60
-23.61
-24.93
-25.09
-23.79
-21.04
-17.18
-12.72
-8.17
-3.89
-0.05
3.31
6.17
8.41
9.88
10.48
10.24
9.43
8.44
7.67
7.39
7.66
8.31
9.06
9.68
10.09
10.38
10.71
11.20
11.85
12.50
12.96
13.04
12.69
11.93
10.85
9.55
8.11
6.65
5.26
4.02
2.91
1.88
0.84
-0.26
-1.39
-2.47
-3.43
-4.27
-5.05
-5.90
-6.90
-8.03
-9.27
-10.64
-12.20
-14.09
-16.33
-18.72
-20.78
-21.89
-21.51
-19.36
-15.63
-10.86
-5.77
-1.00
3.08
6.38
8.97
10.95
12.30
12.96
12.92
12.33
11.48
10.73
10.29
10.19
10.31
10.53
10.77
11.06
11.45
11.97
12.50
12.92
13.10
12.93
12.38
11.43
10.05
8.33
6.39
4.45
2.69
1.22
0.01
-1.09
-2.23
-3.50
-4.90
-6.34
-7.68
-8.83
-9.77
-10.55
-11.37
-12.43
-14.01
-16.24
-19.04
-22.08
-24.77
-26.47
-26.65
-25.10
-21.98
-17.74
-12.94
-8.09
-3.50
0.69
4.43
7.67
10.28
12.10
13.04
13.15
12.67
11.94
11.38
11.23
11.55
12.16
12.80
13.22
13.36
13.29
13.23
13.34
13.62
13.95
14.08
13.79
12.96
11.58
9.77
7.72
5.66
3.77
2.18
0.88
-0.28
-1.51
-3.02
-4.83
-6.83
-8.76
-10.38
-11.58
-12.43
-13.18
-14.12
-15.51
-17.51
-20.13
-23.23
-26.48
-29.41
-31.45
-32.11
-31.06
-28.28
-24.01
-18.70
-12.87
-7.00
-1.51
3.29
7.18
10.10
12.11
13.35
14.07
14.46
14.67
14.83
15.03
15.30
15.61
15.91
16.09
16.13
16.04
15.91
15.83
15.83
15.85
15.80
15.60
15.23
14.68
13.97
13.04
11.83
10.28
8.42
6.37
4.32
2.45
0.89
-0.37
-1.45
-2.51
-3.73
-5.19
-6.89
-8.73
-10.54
-12.18
-13.64
-15.03
-16.59
-18.55
-21.05
-24.03
-27.23
-30.26
-32.64
-33.97
-33.90
-32.28
-29.14
-24.68
-19.30
-13.49
-7.80
-2.65
1.68
5.11
7.68
9.53
10.83
11.74
12.42
12.99
13.58
14.24
14.94
15.61
16.10
16.34
16.32
16.21
16.23
16.54
17.20
18.07
18.84
19.18
18.86
17.83
16.24
14.35
12.39
10.56
8.90
7.45
6.17
5.04
4.01
3.01
1.98
0.87
-0.34
-1.59
-2.82
-3.96
-5.03
-6.09
-7.21
-8.45
-9.78
-11.16
-12.59
-14.14
-15.96
-18.19
-20.75
-23.33
-25.37
-26.27
-25.56
-23.08
-19.00
-13.78
-7.99
-2.21
3.09
7.56
11.00
13.34
14.63
15.02
14.74
14.06
13.26
12.57
12.17
12.12
12.37
12.81
13.31
13.80
14.27
14.78
15.34
15.90
16.36
16.56
16.35
15.64
14.46
12.92
11.18
9.39
7.68
6.10
4.64
3.25
1.84
0.33
-1.32
-3.04
-4.72
-6.20
-7.38
-8.23
-8.85
-9.41
-10.14
-11.26
-12.90
-15.12
-17.81
-20.71
-23.42
-25.47
-26.34
-25.69
-23.36
-19.47
-14.41
-8.73
-3.03
2.15
6.45
9.71
11.96
13.32
13.95
14.00
13.57
12.87
12.09
11.49
11.24
11.39
11.86
12.47
13.09
13.67
14.22
14.74
15.19
15.46
15.42
14.93
13.92
12.38
10.37
8.06
5.69
3.55
1.86
0.64
-0.26
-1.13
-2.26
-3.77
-5.60
-7.54
-9.36
-10.92
-12.24
-13.43
-14.63
-15.97
-17.49
-19.27
-21.35
-23.80
-26.55
-29.28
-31.47
-32.43
-31.58
-28.68
-23.97
-18.11
-11.92
-6.13
-1.18
2.83
6.04
8.68
10.90
12.73
14.14
15.05
15.44
15.37
15.03
14.61
14.27
14.09
14.05
14.09
14.19
14.32
14.49
14.67
14.82
14.87
14.77
14.52
14.11
13.53
12.74
11.68
10.30
8.62
6.73
4.78
2.95
1.31
-0.12
-1.42
-2.70
-4.10
-5.68
-7.38
-9.10
-10.71
-12.08
-13.20
-14.15
-15.11
-16.33
-18.07
-20.48
-23.51
-26.79
-29.67
-31.40
-31.33
-29.17
-25.11
-19.74
-13.83
-8.11
-3.03
1.20
4.58
7.19
9.16
10.57
11.55
12.20
12.62
12.85
12.88
12.65
12.19
11.57
10.94
10.50
10.39
10.66
11.26
12.09
13.01
13.90
14.65
15.16
15.34
15.09
14.39
13.32
12.00
10.55
9.02
7.39
5.66
3.87
2.18
0.77
-0.27
-1.00
-1.64
-2.43
-3.54
-4.93
-6.46
-7.94
-9.29
-10.53
-11.75
-13.08
-14.60
-16.40
-18.53
-21.00
-23.64
-26.10
-27.89
-28.49
-27.60
-25.22
-21.67
-17.45
-13.03
-8.74
-4.75
-1.13
2.11
4.91
7.20
8.86
9.86
10.20
10.02
9.56
9.10
8.91
9.10
9.63
10.32
11.01
11.62
12.16
12.69
13.20
13.60
13.75
13.55
13.00
12.23
11.46
10.86
10.46
10.19
9.84
9.15
7.96
6.28
4.29
2.30
0.60
-0.64
-1.38
-1.71
-1.81
-1.88
-2.10
-2.64
-3.58
-4.93
-6.55
-8.22
-9.77
-11.18
-12.58
-14.20
-16.20
-18.49
-20.67
-22.17
-22.45
-21.17
-18.37
-14.38
-9.73
-4.93
-0.41
3.56
6.81
9.25
10.86
11.68
11.81
11.46
10.85
10.21
9.69
9.38
9.27
9.33
9.53
9.87
10.35
10.96
11.67
12.37
12.94
13.30
13.33
12.97
12.20
11.05
9.62
8.07
6.59
5.28
4.14
3.08
1.94
0.58
-0.97
-2.62
-4.16
-5.45
-6.46
-7.29
-8.14
-9.15
-10.44
-12.04
-13.97
-16.23
-18.80
-21.58
-24.29
-26.49
-27.70
-27.58
-26.02
-23.21
-19.49
-15.24
-10.74
-6.23
-1.90
2.03
5.31
7.75
9.30
10.05
10.25
10.15
10.00
9.93
9.95
10.04
10.13
10.23
10.31
10.41
10.59
10.86
11.24
11.71
12.19
12.56
12.62
12.22
11.26
9.80
8.01
6.17
4.54
3.27
2.36
1.64
0.90
-0.08
-1.41
-3.10
-5.00
-6.91
-8.59
-9.91
-10.86
-11.59
-12.34
-13.38
-14.92
-17.01
-19.57
-22.38
-25.02
-26.99
-27.78
-27.02
-24.60
-20.76
-16.02
-11.00
-6.22
-1.97
1.66
4.69
7.18
9.13
10.55
11.47
11.99
12.23
12.29
12.23
12.09
11.94
11.82
11.81
11.90
12.02
12.05
11.94
11.75
11.64
11.77
12.16
12.67
13.01
12.88
12.13
10.82
9.14
7.34
5.57
3.88
2.22
0.59
-0.98
-2.38
-3.52
-4.41
-5.13
-5.82
-6.61
-7.58
-8.71
-9.94
-11.17
-12.36
-13.52
-14.74
-16.19
-18.01
-20.27
-22.83
-25.34
-27.29
-28.22
-27.78
-25.89
-22.70
-18.51
-13.70
-8.69
-3.87
0.44
3.96
6.56
8.23
9.13
9.47
9.51
9.47
9.52
9.76
10.24
10.91
11.67
12.35
12.82
13.00
12.94
12.78
12.67
12.73
12.93
13.16
13.25
13.02
12.44
11.55
10.46
9.27
8.01
6.67
5.21
3.69
2.27
1.16
0.46
0.13
-0.06
-0.40
-1.09
-2.17
-3.47
-4.78
-5.91
-6.82
-7.58
-8.33
-9.23
-10.40
-11.93
-13.84
-16.08
-18.45
-20.59
-22.03
-22.23
-20.85
-17.78
-13.29
-7.98
-2.55
2.34
6.27
9.13
11.02
12.12
12.62
12.65
12.32
11.81
11.32
11.01
10.98
11.18
11.52
11.85
12.16
12.48
12.87
13.35
13.81
14.15
14.26
14.06
13.58
12.88
11.99
10.92
9.59
7.95
5.99
3.81
1.58
-0.49
-2.19
-3.41
-4.18
-4.62
-4.95
-5.41
-6.17
-7.28
-8.70
-10.29
-11.95
-13.63
-15.35
-17.22
-19.30
-21.53
-23.65
-25.28
-25.97
-25.40
-23.45
-20.24
-16.12
-11.50
-6.77
-2.24
1.87
5.42
8.24
10.22
11.27
11.44
10.95
10.16
9.47
9.14
9.22
9.59
10.01
10.35
10.62
10.91
11.33
11.86
12.39
12.81
13.06
13.18
13.20
13.10
12.75
11.95
10.61
8.80
6.74
4.66
2.78
1.16
-0.21
-1.41
-2.48
-3.41
-4.22
-4.92
-5.61
-6.42
-7.48
-8.86
-10.52
-12.29
-14.01
-15.58
-17.04
-18.59
-20.45
-22.68
-25.09
-27.24
-28.53
-28.47
-26.87
-23.81
-19.62
-14.72
-9.54
-4.44
0.26
4.29
7.44
9.67
11.04
11.77
12.11
12.30
12.47
12.70
13.03
13.45
13.95
14.47
14.91
15.22
15.35
15.33
15.25
15.21
15.26
15.40
15.53
15.51
15.21
14.56
13.59
12.37
10.97
9.42
7.73
5.91
4.05
2.31
0.88
-0.14
-0.77
-1.20
-1.69
-2.50
-3.81
-5.63
-7.81
-10.10
-12.19
-13.87
-15.07
-15.91
-16.63
-17.54
-18.84
-20.67
-22.95
-25.44
-27.74
-29.31
-29.62
-28.28
-25.20
-20.67
-15.26
-9.68
-4.56
-0.28
3.05
5.49
7.22
8.44
9.32
10.00
10.56
11.03
11.40
11.65
11.80
11.92
12.06
12.26
12.51
12.79
13.08
13.43
13.84
14.30
14.69
14.84
14.60
13.95
12.95
11.75
10.51
9.34
8.24
7.17
6.08
4.93
3.75
2.61
1.63
0.85
0.22
-0.37
-1.10
-2.11
-3.44
-4.98
-6.55
-7.97
-9.10
-9.92
-10.48
-10.92
-11.46
-12.37
-13.82
-15.87
-18.32
-20.71
-22.44
-22.93
-21.83
-19.08
-14.99
-10.06
-4.97
-0.30
3.57
6.52
8.65
10.19
11.37
12.27
12.88
13.13
13.04
12.73
12.38
12.13
12.03
12.07
12.18
12.36
12.67
13.16
13.83
14.54
15.10
15.28
14.96
14.15
12.96
11.58
10.19
8.91
7.80
6.84
5.98
5.15
4.31
3.42
2.48
1.45
0.33
-0.89
-2.19
-3.52
-4.83
-6.10
-7.34
-8.56
-9.77
-10.97
-12.20
-13.58
-15.28
-17.44
-20.06
-22.92
-25.57
-27.45
-28.11
-27.29
-25.03
-21.59
-17.37
-12.77
-8.16
-3.87
-0.07
3.13
5.73
7.77
9.29
10.29
10.80
10.91
10.76
10.55
10.48
10.62
10.95
11.37
11.75
12.06
12.33
12.64
13.05
13.51
13.88
13.94
13.55
12.70
11.54
10.30
9.18
8.24
7.41
6.54
5.54
4.42
3.27
2.19
1.23
0.34
-0.54
-1.50
-2.55
-3.66
-4.78
-5.88
-6.97
-8.07
-9.28
-10.66
-12.27
-14.11
-16.15
-18.31
-20.53
-22.75
-24.85
-26.65
-27.84
-28.08
-27.05
-24.63
-20.92
-16.26
-11.15
-6.10
-1.54
2.25
5.19
7.36
8.93
10.06
10.86
11.39
11.66
11.77
11.86
12.08
12.47
12.96
13.37
13.59
13.62
13.61
13.78
14.21
14.81
15.28
15.32
14.75
13.65
12.30
11.00
9.94
9.11
8.36
7.52
6.47
5.20
3.83
2.47
1.20
0.07
-0.92
-1.78
-2.56
-3.29
-4.06
-4.96
-6.06
-7.42
-8.97
-10.55
-12.00
-13.13
-13.94
-14.59
-15.44
-16.87
-19.10
-22.04
-25.19
-27.83
-29.16
-28.69
-26.31
-22.30
-17.25
-11.80
-6.53
-1.86
1.97
4.87
6.88
8.16
8.94
9.40
9.69
9.91
10.08
10.25
10.44
10.65
10.89
11.12
11.33
11.55
11.84
12.23
12.70
13.15
13.42
13.41
13.11
12.61
12.07
11.58
11.11
10.56
9.77
8.67
7.29
5.77
4.29
2.99
1.90
1.01
0.30
-0.26
-0.72
-1.14
-1.66
-2.40
-3.43
-4.69
-6.04
-7.24
-8.16
-8.79
-9.34
-10.08
-11.31
-13.15
-15.50
-17.98
-20.08
-21.25
-21.14
-19.61
-16.80
-13.08
-8.87
-4.60
-0.61
2.86
5.63
7.63
8.87
9.45
9.56
9.39
9.11
8.81
8.54
8.28
8.08
8.02
8.18
8.63
9.35
10.25
11.20
12.07
12.77
13.22
13.38
13.21
12.66
11.71
10.39
8.81
7.14
5.58
4.29
3.32
2.65
2.15
1.65
1.03
0.22
-0.75
-1.79
-2.82
-3.78
-4.66
-5.48
-6.29
-7.18
-8.26
-9.65
-11.45
-13.66
-16.13
-18.49
-20.22
-20.82
-19.91
-17.45
-13.75
-9.41
-5.08
-1.27
1.76
4.02
5.69
6.95
7.88
8.46
8.62
8.37
7.87
7.34
7.03
7.04
7.31
7.66
7.94
8.09
8.22
8.49
8.95
9.55
10.09
10.38
10.32
9.92
9.25
8.38
7.32
6.06
4.58
2.97
1.37
-0.06
-1.20
-2.03
-2.65
-3.23
-3.91
-4.77
-5.82
-6.97
-8.17
-9.38
-10.63
-11.93
-13.35
-14.92
-16.71
-18.79
-21.09
-23.38
-25.22
-26.08
-25.52
-23.38
-19.88
-15.52
-10.89
-6.50
-2.63
0.61
3.26
5.41
7.15
8.56
9.67
10.49
11.01
11.21
11.14
10.96
10.79
10.75
10.85
11.05
11.25
11.42
11.59
11.76
11.94
12.07
12.10
11.95
11.64
11.18
10.55
9.71
8.62
7.30
5.86
4.46
3.28
2.41
1.83
1.41
0.95
0.34
-0.50
-1.55
-2.75
-4.07
-5.51
-7.10
-8.82
-10.58
-12.25
-13.77
-15.22
-16.77
-18.63
-20.83
-23.13
-25.03
-25.96
-25.54
-23.67
-20.62
-16.82
-12.75
-8.77
-5.10
-1.90
0.80
2.97
4.68
6.02
7.08
7.92
8.57
9.06
9.43
9.78
10.14
10.52
10.85
11.06
11.10
11.03
10.93
10.90
10.99
11.20
11.49
11.80
12.00
11.99
11.65
10.97
9.97
8.79
7.57
6.36
5.17
3.97
2.77
1.63
0.67
0.00
-0.39
-0.62
-0.91
-1.41
-2.22
-3.32
-4.58
-5.85
-7.00
-8.00
-8.83
-9.57
-10.29
-11.08
-12.03
-13.26
-14.88
-16.88
-19.15
-21.33
-22.92
-23.41
-22.43
-19.98
-16.35
-12.16
-7.98
-4.32
-1.35
0.97
2.82
4.37
5.67
6.72
7.45
7.88
8.10
8.26
8.49
8.86
9.32
9.77
10.12
10.38
10.62
10.96
11.43
11.97
12.46
12.74
12.72
12.45
12.01
11.49
10.88
10.10
9.08
7.81
6.40
5.03
3.90
3.08
2.58
2.30
2.14
2.02
1.82
1.44
0.74
-0.35
-1.78
-3.41
-5.04
-6.51
-7.80
-9.07
-10.51
-12.29
-14.40
-16.59
-18.48
-19.63
-19.70
-18.56
-16.27
-13.06
-9.32
-5.46
-1.85
1.23
3.70
5.56
6.91
7.85
8.48
8.83
8.96
8.94
8.86
8.82
8.88
9.09
9.45
9.94
10.52
11.08
11.56
11.84
11.87
11.66
11.26
10.75
10.20
9.66
9.10
8.47
7.68
6.62
5.26
3.65
1.94
0.35
-0.97
-2.04
-2.99
-4.04
-5.32
-6.82
-8.39
-9.81
-10.93
-11.74
-12.33
-12.91
-13.74
-15.08
-17.09
-19.77
-22.80
-25.65
-27.63
-28.14
-26.93
-24.11
-20.11
-15.52
-10.84
-6.45
-2.56
0.73
3.40
5.50
7.19
8.62
9.91
11.08
12.03
12.70
13.01
13.03
12.86
12.61
12.35
12.14
12.06
12.23
12.70
13.44
14.27
14.91
15.09
14.69
13.81
12.68
11.53
10.49
9.52
8.50
7.32
5.94
4.46
2.93
1.45
-0.00
-1.44
-2.90
-4.34
-5.71
-6.95
-8.03
-8.97
-9.77
-10.49
-11.16
-11.88
-12.77
-14.00
-15.71
-17.96
-20.61
-23.33
-25.61
-26.89
-26.73
-24.95
-21.65
-17.28
-12.43
-7.67
-3.46
-0.03
2.62
4.66
6.34
7.87
9.36
10.75
11.94
12.83
13.42
13.78
14.05
14.28
14.43
14.44
14.28
14.02
13.83
13.84
14.07
14.36
14.51
14.35
13.84
13.05
12.13
11.13
10.08
8.96
7.75
6.53
5.40
4.41
3.56
2.80
2.01
1.15
0.18
-0.89
-2.00
-3.08
-4.09
-5.01
-5.84
-6.65
-7.57
-8.68
-10.05
-11.63
-13.32
-15.04
-16.74
-18.47
-20.34
-22.38
-24.47
-26.29
-27.43
-27.49
-26.20
-23.54
-19.73
-15.16
-10.29
-5.55
-1.30
2.22
4.90
6.76
7.94
8.67
9.21
9.77
10.49
11.34
12.19
12.88
13.26
13.26
12.99
12.65
12.45
12.57
13.05
13.80
14.62
15.29
15.60
15.44
14.80
13.75
12.44
11.03
9.63
8.31
7.09
5.96
4.90
3.89
2.89
1.91
0.93
0.00
-0.85
-1.64
-2.38
-3.14
-3.96
-4.88
-5.90
-6.96
-8.04
-9.11
-10.16
-11.26
-12.50
-14.00
-15.79
-17.71
-19.40
-20.37
-20.11
-18.36
-15.17
-10.90
-6.14
-1.48
2.60
5.81
8.11
9.63
10.59
11.20
11.59
11.79
11.74
11.43
10.94
10.44
10.10
10.04
10.24
10.61
11.06
11.58
12.12
12.65
13.04
13.14
12.87
12.25
11.41
10.43
9.36
8.12
6.67
5.05
3.40
1.96
0.89
0.21
-0.23
-0.63
-1.15
-1.87
-2.78
-3.85
-5.07
-6.44
-7.97
-9.61
-11.27
-12.89
-14.47
-16.10
-17.99
-20.30
-23.05
-26.02
-28.73
-30.61
-31.10
-29.91
-27.04
-22.84
-17.84
-12.62
-7.65
-3.20
0.64
3.91
6.66
8.92
10.65
11.78
12.33
12.40
12.24
12.10
12.20
12.58
13.16
13.79
14.33
14.76
15.13
15.50
15.83
16.09
16.18
16.02
15.63
15.03
14.27
13.34
12.29
11.10
9.80
8.41
6.92
5.33
3.66
2.02
0.54
-0.72
-1.76
-2.70
-3.69
-4.83
-6.15
-7.61
-9.15
-10.71
-12.29
-13.88
-15.46
-17.05
-18.69
-20.48
-22.55
-24.92
-27.39
-29.53
-30.80
-30.72
-29.03
-25.81
-21.38
-16.22
-10.82
-5.58
-0.79
3.36
6.74
9.32
11.13
12.26
12.82
12.97
12.83
12.56
12.33
12.25
12.39
12.69
13.03
13.29
13.42
13.52
13.68
14.00
14.41
14.73
14.76
14.38
13.61
12.60
11.52
10.48
9.48
8.46
7.31
5.99
4.50
2.92
1.33
-0.14
-1.38
-2.32
-2.98
-3.45
-3.91
-4.54
-5.50
-6.83
-8.45
-10.19
-11.87
-13.31
-14.45
-15.38
-16.27
-17.40
-19.00
-21.14
-23.67
-26.18
-28.16
-29.08
-28.56
-26.44
-22.86
-18.17
-12.88
-7.51
-2.53
1.78
5.31
8.09
10.19
11.67
12.56
12.95
12.96
12.79
12.63
12.60
12.71
12.84
12.89
12.82
12.72
12.73
12.95
13.40
13.97
14.52
14.89
15.00
14.87
14.52
13.98
13.21
12.16
10.75
8.98
6.96
4.91
3.06
1.60
0.56
-0.21
-0.90
-1.71
-2.74
-3.92
-5.18
-6.38
-7.54
-8.67
-9.87
-11.19
-12.68
-14.41
-16.43
-18.77
-21.28
-23.62
-25.27
-25.66
-24.37
-21.30
-16.72
-11.18
-5.38
0.08
4.76
8.50
11.27
13.15
14.26
14.73
14.68
14.24
13.57
12.82
12.12
11.59
11.30
11.30
11.58
12.09
12.76
13.48
14.14
14.63
14.85
14.74
14.29
13.56
12.65
11.61
10.46
9.16
7.67
5.99
4.20
2.40
0.68
-0.96
-2.57
-4.25
-6.01
-7.78
-9.41
-10.81
-11.95
-12.92
-13.89
-15.06
-16.63
-18.75
-21.48
-24.73
-28.19
-31.34
-33.50
-34.01
-32.47
-28.84
-23.52
-17.24
-10.80
-4.87
0.19
4.33
7.68
10.40
12.58
14.16
15.07
15.28
14.94
14.31
13.71
13.38
13.38
13.64
14.06
14.56
15.14
15.81
16.53
17.21
17.67
17.75
17.31
16.34
14.94
13.29
11.57
9.95
8.51
7.21
5.98
4.70
3.32
1.90
0.51
-0.80
-2.05
-3.35
-4.79
-6.41
-8.14
-9.86
-11.49
-13.01
-14.49
-16.01
-17.59
-19.28
-21.11
-23.18
-25.57
-28.25
-30.97
-33.23
-34.40
-33.93
-31.54
-27.38
-21.88
-15.72
-9.48
-3.64
1.54
5.93
9.49
12.22
14.12
15.28
15.83
15.99
15.96
15.90
15.89
15.96
16.06
16.22
16.44
16.75
17.13
17.53
17.86
18.07
18.11
17.98
17.66
17.12
16.31
15.22
13.86
12.27
10.51
8.64
6.73
4.87
3.13
1.57
0.22
-0.98
-2.12
-3.30
-4.59
-5.99
-7.48
-9.00
-10.52
-12.06
-13.62
-15.21
-16.83
-18.45
-20.14
-21.99
-24.16
-26.71
-29.54
-32.28
-34.32
-34.99
-33.81
-30.63
-25.74
-19.72
-13.28
-7.06
-1.50
3.16
6.85
9.61
11.55
12.79
13.44
13.67
13.62
13.49
13.48
13.73
14.27
15.01
15.76
16.37
16.76
16.97
17.13
17.36
17.70
18.08
18.37
18.43
18.19
17.60
16.68
15.41
13.83
11.98
9.97
7.94
6.08
4.52
3.31
2.40
1.67
0.94
0.04
-1.10
-2.47
-4.01
-5.58
-7.06
-8.38
-9.58
-10.80
-12.26
-14.20
-16.74
-19.79
-22.97
-25.71
-27.35
-27.40
-25.67
-22.27
-17.56
-12.01
-6.11
-0.33
4.97
9.47
12.98
15.43
16.87
17.46
17.40
16.91
16.17
15.37
14.68
14.24
14.14
14.33
14.74
15.28
15.84
16.35
16.73
16.91
16.80
16.38
15.66
14.66
13.37
11.79
9.90
7.77
5.54
3.44
1.63
0.18
-1.05
-2.27
-3.68
-5.39
-7.31
-9.27
-11.12
-12.73
-14.09
-15.31
-16.55
-18.04
-20.02
-22.63
-25.80
-29.22
-32.35
-34.53
-35.13
-33.77
-30.38
-25.25
-18.94
-12.16
-5.63
0.13
4.81
8.42
11.11
13.09
14.50
15.39
15.77
15.73
15.41
15.03
14.78
14.75
14.88
15.10
15.34
15.64
16.06
16.60
17.18
17.56
17.55
17.03
16.04
14.72
13.22
11.61
9.88
7.98
5.96
3.95
2.12
0.56
-0.77
-2.05
-3.49
-5.20
-7.09
-8.96
-10.58
-11.85
-12.88
-13.91
-15.16
-16.80
-18.88
-21.42
-24.41
-27.83
-31.46
-34.86
-37.30
-38.03
-36.54
-32.76
-27.14
-20.48
-13.62
-7.23
-1.65
3.03
6.90
10.07
12.63
14.62
16.08
17.05
17.63
17.91
18.04
18.12
18.24
18.40
18.58
18.76
18.94
19.18
19.51
19.92
20.32
20.59
20.61
20.26
19.52
18.39
16.90
15.08
12.96
10.60
8.08
5.53
3.12
1.00
-0.72
-2.05
-3.09
-4.08
-5.26
-6.81
-8.74
-10.88
-12.96
-14.75
-16.15
-17.27
-18.38
-19.79
-21.76
-24.40
-27.69
-31.35
-34.92
-37.71
-38.96
-38.03
-34.67
-29.16
-22.26
-14.90
-7.95
-1.90
3.09
7.10
10.28
12.72
14.45
15.52
16.03
16.22
16.25
16.26
16.32
16.44
16.64
16.97
17.47
18.13
18.87
19.56
20.10
20.40
20.43
20.15
19.53
18.52
17.17
15.59
13.96
12.42
11.00
9.64
8.18
6.54
4.74
2.94
1.30
-0.01
-1.02
-1.80
-2.51
-3.26
-4.13
-5.14
-6.31
-7.64
-9.12
-10.68
-12.26
-13.81
-15.40
-17.20
-19.38
-21.96
-24.71
-27.08
-28.36
-27.93
-25.48
-21.16
-15.50
-9.28
-3.22
2.15
6.54
9.93
12.36
13.95
14.79
15.01
14.76
14.26
13.74
13.38
13.28
13.42
13.68
13.94
14.19
14.47
14.92
15.58
16.40
17.20
17.71
17.71
17.07
15.84
14.15
12.21
10.18
8.21
6.34
4.57
2.85
1.10
-0.71
-2.60
-4.49
-6.28
-7.85
-9.11
-10.08
-10.89
-11.76
-12.89
-14.46
-16.53
-19.04
-21.83
-24.59
-26.91
-28.28
-28.29
-26.68
-23.50
-19.10
-14.01
-8.81
-3.95
0.33
3.98
7.01
9.46
11.30
12.49
13.03
12.98
12.49
11.78
11.03
10.43
10.08
10.00
10.15
10.48
10.91
11.39
11.87
12.28
12.49
12.41
11.96
11.12
9.93
8.47
6.84
5.13
3.44
1.86
0.42
-0.89
-2.11
-3.26
-4.37
-5.46
-6.56
-7.66
-8.75
-9.83
-10.91
-12.04
-13.32
-14.90
-16.91
-19.40
-22.23
-25.08
-27.48
-28.97
-29.16
-27.84
-25.05
-21.00
-16.08
-10.79
-5.60
-0.96
2.86
5.75
7.77
9.13
10.08
10.84
11.51
12.10
12.57
12.85
12.90
12.70
12.33
11.87
11.45
11.21
11.22
11.51
12.03
12.65
13.23
13.61
13.73
13.55
13.03
12.17
10.94
9.36
7.55
5.65
3.83
2.23
0.90
-0.24
-1.29
-2.37
-3.54
-4.75
-5.93
-7.03
-8.06
-9.13
-10.38
-11.93
-13.82
-16.06
-18.63
-21.41
-24.18
-26.61
-28.24
-28.66
-27.60
-25.06
-21.31
-16.77
-11.92
-7.21
-3.00
0.48
3.11
4.90
6.00
6.64
7.10
7.59
8.21
8.94
9.69
10.37
10.88
11.18
11.30
11.30
11.32
11.48
11.87
12.44
13.05
13.47
13.52
13.11
12.29
11.24
10.13
9.11
8.23
7.46
6.73
5.98
5.17
4.29
3.33
2.26
1.06
-0.24
-1.60
-2.91
-4.12
-5.18
-6.09
-6.87
-7.56
-8.25
-9.02
-10.03
-11.46
-13.41
-15.84
-18.42
-20.60
-21.81
-21.60
-19.87
-16.88
-13.14
-9.16
-5.38
-2.01
0.86
3.22
5.08
6.46
7.43
8.06
8.43
8.60
8.61
8.50
8.34
8.24
8.29
8.52
8.89
9.36
9.87
10.42
10.99
11.53
11.90
11.98
11.64
10.88
9.81
8.62
7.52
6.68
6.10
5.69
5.19
4.39
3.15
1.52
-0.30
-1.99
-3.27
-4.02
-4.30
-4.37
-4.53
-5.07
-6.21
-7.99
-10.37
-13.14
-15.95
-18.35
-19.87
-20.15
-19.01
-16.56
-13.12
-9.17
-5.18
-1.54
1.53
3.96
5.77
7.06
7.87
8.24
8.20
7.84
7.34
6.91
6.72
6.82
7.09
7.33
7.36
7.14
6.79
6.51
6.52
6.84
7.35
7.78
7.87
7.48
6.60
5.35
3.90
2.35
0.81
-0.66
-2.00
-3.18
-4.15
-4.99
-5.79
-6.62
-7.47
-8.27
-8.95
-9.56
-10.31
-11.46
-13.22
-15.56
-18.17
-20.53
-22.18
-22.76
-22.18
-20.58
-18.20
-15.30
-12.12
-8.86
-5.70
-2.80
-0.28
1.85
3.63
5.17
6.59
7.92
9.08
9.95
10.41
10.43
10.13
9.71
9.40
9.34
9.58
10.07
10.67
11.24
11.64
11.78
11.60
11.12
10.41
9.54
8.57
7.51
6.36
5.09
3.70
2.24
0.75
-0.67
-1.98
-3.14
-4.15
-5.02
-5.79
-6.49
-7.18
-7.93
-8.80
-9.90
-11.30
-13.11
-15.35
-17.94
-20.63
-23.02
-24.64
-25.10
-24.19
-21.93
-18.60
-14.59
-10.38
-6.40
-2.96
-0.22
1.84
3.35
4.56
5.67
6.80
7.97
9.09
10.07
10.80
11.19
11.21
10.92
10.44
9.99
9.75
9.85
10.25
10.79
11.28
11.58
11.62
11.42
11.02
10.43
9.66
8.74
7.72
6.68
5.66
4.65
3.59
2.49
1.32
0.13
-1.01
-2.05
-2.93
-3.60
-4.06
-4.40
-4.79
-5.42
-6.42
-7.79
-9.39
-11.03
-12.59
-14.10
-15.72
-17.55
-19.52
-21.29
-22.40
-22.45
-21.27
-18.96
-15.84
-12.31
-8.69
-5.21
-1.99
0.90
3.45
5.64
7.46
8.93
10.06
10.87
11.37
11.55
11.46
11.18
10.84
10.61
10.62
10.95
11.56
12.35
13.15
13.79
14.16
14.20
13.95
13.49
12.89
12.22
11.54
10.83
10.09
9.29
8.38
7.38
6.33
5.30
4.35
3.55
2.88
2.29
1.67
0.89
-0.13
-1.39
-2.77
-4.13
-5.40
-6.60
-7.91
-9.51
-11.56
-14.03
-16.72
-19.23
-21.13
-22.00
-21.55
-19.68
-16.52
-12.45
-7.98
-3.65
0.14
3.27
5.76
7.79
9.43
10.66
11.41
11.58
11.23
10.53
9.73
9.06
8.71
8.75
9.16
9.86
10.70
11.49
12.08
12.36
12.35
12.13
11.82
11.46
11.03
10.44
9.64
8.61
7.44
6.24
5.04
3.82
2.50
1.04
-0.54
-2.11
-3.54
-4.70
-5.63
-6.44
-7.33
-8.45
-9.79
-11.26
-12.68
-13.99
-15.28
-16.83
-18.91
-21.55
-24.46
-26.99
-28.45
-28.33
-26.54
-23.39
-19.40
-15.07
-10.69
-6.35
-2.16
1.75
5.12
7.69
9.36
10.22
10.54
10.65
10.78
11.05
11.43
11.83
12.15
12.41
12.64
12.93
13.35
13.88
14.44
14.90
15.16
15.13
14.81
14.22
13.38
12.38
11.27
10.13
9.01
7.94
6.89
5.81
4.71
3.58
2.48
1.45
0.48
-0.51
-1.58
-2.76
-4.03
-5.33
-6.61
-7.90
-9.28
-10.82
-12.49
-14.21
-15.91
-17.63
-19.49
-21.64
-24.08
-26.55
-28.52
-29.37
-28.71
-26.46
-22.95
-18.69
-14.17
-9.68
-5.33
-1.17
2.71
6.08
8.71
10.43
11.26
11.42
11.22
11.00
10.99
11.27
11.79
12.42
12.98
13.38
13.58
13.67
13.73
13.84
13.99
14.07
13.99
13.68
13.15
12.47
11.69
10.83
9.83
8.69
7.40
6.04
4.69
3.46
2.38
1.46
0.70
0.05
-0.54
-1.13
-1.78
-2.53
-3.38
-4.34
-5.41
-6.61
-7.96
-9.43
-10.97
-12.45
-13.77
-14.90
-15.89
-16.92
-18.18
-19.82
-21.83
-23.95
-25.73
-26.63
-26.18
-24.15
-20.65
-16.08
-11.01
-5.99
-1.42
2.48
5.61
8.01
9.72
10.80
11.36
11.54
11.49
11.33
11.13
10.89
10.61
10.35
10.19
10.28
10.73
11.51
12.51
13.52
14.34
14.87
15.06
14.97
14.68
14.23
13.66
12.93
12.02
10.90
9.60
8.21
6.81
5.47
4.24
3.15
2.18
1.31
0.54
-0.19
-0.97
-1.90
-3.03
-4.32
-5.70
-7.05
-8.34
-9.67
-11.28
-13.34
-15.91
-18.74
-21.39
-23.32
-24.04
-23.30
-21.09
-17.64
-13.31
-8.51
-3.64
0.93
4.93
8.13
10.39
11.69
12.12
11.86
11.17
10.32
9.57
9.06
8.83
8.81
8.94
9.20
9.62
10.30
11.23
12.31
13.28
13.86
13.85
13.25
12.18
10.86
9.44
8.00
6.53
5.03
3.54
2.17
1.01
0.06
-0.73
-1.54
-2.51
-3.74
-5.21
-6.80
-8.34
-9.70
-10.83
-11.80
-12.74
-13.81
-15.16
-16.88
-19.00
-21.52
-24.29
-27.04
-29.30
-30.54
-30.28
-28.28
-24.70
-19.96
-14.68
-9.41
-4.55
-0.34
3.15
5.92
8.03
9.56
10.68
11.53
12.24
12.82
13.26
13.53
13.63
13.67
13.71
13.85
14.05
14.30
14.52
14.74
14.98
15.23
15.43
15.43
15.10
14.33
13.14
11.63
9.96
8.27
6.67
5.20
3.86
2.64
1.47
0.28
-1.00
-2.45
-4.03
-5.66
-7.21
-8.59
-9.77
-10.80
-11.78
-12.86
-14.20
-15.97
-18.27
-21.12
-24.34
-27.56
-30.17
-31.58
-31.31
-29.20
-25.44
-20.54
-15.13
-9.82
-5.08
-1.10
2.11
4.69
6.80
8.55
9.95
10.96
11.61
11.97
12.21
12.45
12.71
12.89
12.90
12.68
12.36
12.18
12.37
13.00
13.93
14.84
15.39
15.38
14.83
13.91
12.80
11.63
10.37
8.96
7.38
5.71
4.11
2.77
1.76
1.01
0.33
-0.50
-1.60
-2.96
-4.45
-5.91
-7.26
-8.45
-9.50
-10.41
-11.18
-11.88
-12.66
-13.78
-15.50
-17.92
-20.84
-23.71
-25.77
-26.35
-25.05
-21.99
-17.62
-12.60
-7.52
-2.75
1.53
5.25
8.33
10.69
12.23
13.00
13.13
12.86
12.43
11.97
11.53
11.15
10.92
10.96
11.36
12.15
13.19
14.30
15.27
16.01
16.52
16.85
17.02
16.97
16.58
15.72
14.39
12.70
10.88
9.16
7.66
6.39
5.21
3.98
2.57
0.99
-0.66
-2.21
-3.57
-4.74
-5.78
-6.83
-7.98
-9.28
-10.79
-12.61
-14.85
-17.58
-20.72
-23.94
-26.70
-28.30
-28.19
-26.11
-22.24
-17.13
-11.50
-6.01
-1.10
3.06
6.51
9.31
11.50
13.00
13.77
13.84
13.35
12.59
11.84
11.32
11.13
11.23
11.54
11.97
12.46
12.95
13.38
13.66
13.75
13.61
13.25
12.72
12.04
11.18
10.12
8.83
7.35
5.78
4.24
2.81
1.52
0.29
-0.96
-2.29
-3.74
-5.29
-6.93
-8.63
-10.36
-12.05
-13.63
-15.05
-16.33
-17.66
-19.29
-21.48
-24.31
-27.61
-30.88
-33.41
-34.51
-33.69
-30.86
-26.33
-20.70
-14.65
-8.76
-3.41
1.22
5.11
8.30
10.84
12.75
14.10
14.98
15.55
15.96
16.33
16.69
16.97
17.09
17.00
16.78
16.59
16.65
17.11
17.94
18.94
19.77
20.13
19.85
18.93
17.53
15.88
14.19
12.61
11.16
9.77
8.31
6.69
4.93
3.10
1.36
-0.17
-1.45
-2.60
-3.80
-5.24
-6.99
-8.99
-11.06
-12.96
-14.61
-16.02
-17.32
-18.68
-20.25
-22.11
-24.32
-26.88
-29.73
-32.66
-35.22
-36.85
-36.94
-35.11
-31.34
-26.03
-19.85
-13.53
-7.65
-2.51
1.83
5.49
8.61
11.26
13.40
14.94
15.85
16.24
16.32
16.36
16.51
16.78
17.05
17.20
17.23
17.26
17.44
17.86
18.50
19.19
19.75
20.00
19.85
19.21
18.08
16.49
14.62
12.68
10.89
9.35
8.03
6.81
5.56
4.24
2.87
1.54
0.34
-0.68
-1.53
-2.23
-2.80
-3.32
-3.93
-4.75
-5.88
-7.31
-8.91
-10.51
-11.94
-13.19
-14.39
-15.78
-17.58
-19.86
-22.41
-24.77
-26.31
-26.41
-24.69
-21.12
-16.05
-10.10
-3.96
1.80
6.79
10.88
14.01
16.23
17.52
17.93
17.58
16.73
15.70
14.77
14.18
13.94
13.99
14.21
14.53
14.97
15.53
16.17
16.75
17.11
17.09
16.66
15.91
14.99
13.96
12.82
11.48
9.90
8.12
6.31
4.66
3.28
2.14
1.09
-0.03
-1.29
-2.68
-4.08
-5.44
-6.79
-8.23
-9.89
-11.79
-13.81
-15.72
-17.32
-18.49
-19.38
-20.30
-21.68
-23.80
-26.64
-29.78
-32.49
-33.93
-33.47
-30.88
-26.37
-20.48
-13.97
-7.56
-1.83
2.86
6.37
8.81
10.41
11.49
12.31
13.03
13.68
14.23
14.60
14.76
14.76
14.67
14.59
14.64
14.88
15.30
15.83
16.32
16.63
16.64
16.32
15.71
14.88
13.93
12.91
11.86
10.77
9.59
8.30
6.89
5.43
4.03
2.81
1.77
0.87
-0.02
-1.03
-2.19
-3.51
-4.95
-6.47
-8.09
-9.76
-11.42
-12.95
-14.27
-15.40
-16.44
-17.60
-19.07
-20.94
-23.18
-25.68
-28.20
-30.40
-31.90
-32.27
-31.17
-28.44
-24.20
-18.83
-12.85
-6.82
-1.24
3.57
7.43
10.34
12.40
13.78
14.69
15.28
15.64
15.80
15.75
15.50
15.08
14.57
14.07
13.69
13.55
13.76
14.33
15.21
16.21
17.07
17.51
17.37
16.66
15.52
14.18
12.85
11.61
10.45
9.25
7.93
6.47
4.90
3.30
1.77
0.40
-0.72
-1.57
-2.17
-2.64
-3.20
-4.08
-5.43
-7.22
-9.28
-11.34
-13.19
-14.75
-16.11
-17.47
-19.04
-20.98
-23.36
-26.12
-29.08
-31.90
-34.08
-35.10
-34.49
-32.01
-27.76
-22.15
-15.80
-9.37
-3.45
1.59
5.58
8.54
10.60
11.92
12.70
13.06
13.11
12.94
12.66
12.37
12.17
12.11
12.20
12.43
12.73
13.04
13.31
13.54
13.72
13.91
14.14
14.40
14.63
14.67
14.39
13.69
12.61
11.24
9.76
8.28
6.88
5.59
4.39
3.31
2.35
1.54
0.89
0.33
-0.22
-0.87
-1.71
-2.81
-4.13
-5.60
-7.11
-8.54
-9.83
-11.00
-12.14
-13.39
-14.88
-16.68
-18.77
-20.96
-22.95
-24.35
-24.79
-24.00
-21.86
-18.44
-14.00
-8.90
-3.58
1.52
6.03
9.73
12.54
14.50
15.71
16.24
16.18
15.62
14.73
13.74
12.89
12.35
12.18
12.28
12.55
12.89
13.30
13.83
14.49
15.22
15.83
16.10
15.89
15.18
14.06
12.69
11.19
9.65
8.08
6.50
4.93
3.41
1.95
0.57
-0.77
-2.08
-3.36
-4.56
-5.62
-6.52
-7.33
-8.13
-9.07
-10.25
-11.68
-13.31
-15.03
-16.79
-18.62
-20.64
-22.92
-25.38
-27.69
-29.28
-29.59
-28.25
-25.22
-20.90
-15.83
-10.58
-5.55
-0.96
3.07
6.47
9.15
11.06
12.23
12.76
12.83
12.63
12.33
12.02
11.78
11.65
11.61
11.65
11.78
12.03
12.43
13.01
13.72
14.42
14.95
15.15
14.94
14.33
13.38
12.18
10.85
9.47
8.16
6.94
5.81
4.67
3.46
2.13
0.74
-0.62
-1.85
-2.92
-3.83
-4.66
-5.46
-6.32
-7.32
-8.55
-10.09
-11.96
-14.09
-16.32
-18.57
-20.82
-23.17
-25.77
-28.55
-31.20
-33.15
-33.73
-32.48
-29.29
-24.48
-18.66
-12.55
-6.77
-1.69
2.50
5.79
8.29
10.13
11.43
12.28
12.76
12.95
12.94
12.88
12.86
12.94
13.10
13.29
13.49
13.73
14.08
14.60
15.23
15.84
16.21
16.19
15.72
14.86
13.76
12.55
11.30
10.03
8.71
7.29
5.74
4.08
2.42
0.90
-0.34
-1.22
-1.82
-2.27
-2.81
-3.57
-4.59
-5.82
-7.13
-8.44
-9.77
-11.17
-12.68
-14.29
-15.88
-17.31
-18.55
-19.70
-21.02
-22.76
-24.98
-27.39
-29.41
-30.29
-29.44
-26.63
-22.10
-16.49
-10.59
-5.11
-0.47
3.15
5.86
7.83
9.24
10.20
10.79
11.11
11.28
11.45
11.70
12.03
12.35
12.53
12.53
12.41
12.34
12.53
13.05
13.85
14.74
15.47
15.87
15.88
15.52
14.86
13.96
12.85
11.54
10.04
8.41
6.74
5.14
3.73
2.54
1.59
0.79
0.02
-0.82
-1.82
-2.97
-4.19
-5.40
-6.46
-7.31
-7.96
-8.47
-8.98
-9.66
-10.69
-12.18
-14.17
-16.47
-18.74
-20.49
-21.20
-20.47
-18.19
-14.54
-9.95
-4.95
-0.07
4.28
7.84
10.49
12.22
13.12
13.37
13.16
12.67
12.04
11.36
10.71
10.17
9.82
9.75
9.96
10.41
11.01
11.67
12.29
12.82
13.23
13.46
13.44
13.12
12.42
11.30
9.75
7.85
5.75
3.65
1.74
0.12
-1.23
-2.42
-3.60
-4.88
-6.26
-7.69
-9.07
-10.39
-11.65
-12.91
-14.24
-15.69
-17.38
-19.42
-21.90
-24.81
-27.88
-30.64
-32.46
-32.81
-31.40
-28.33
-24.00
-18.93
-13.61
-8.40
-3.51
0.91
4.74
7.88
10.25
11.80
12.63
12.85
12.67
12.36
12.19
12.34
12.86
13.65
14.51
15.26
15.79
16.14
16.37
16.58
16.74
16.78
16.63
16.21
15.51
14.52
13.24
11.69
9.90
7.98
6.03
4.20
2.54
1.06
-0.27
-1.52
-2.72
-3.91
-5.12
-6.38
-7.72
-9.14
-10.59
-12.05
-13.50
-15.05
-16.83
-19.02
-21.68
-24.68
-27.69
-30.19
-31.66
-31.70
-30.13
-27.06
-22.81
-17.81
-12.48
-7.23
-2.38
1.84
5.32
8.03
10.09
11.61
12.71
13.45
13.87
14.00
13.93
13.81
13.77
13.89
14.14
14.42
14.66
14.83
15.02
15.31
15.74
16.25
16.65
16.74
16.37
15.50
14.25
12.80
11.38
10.14
9.05
7.95
6.63
4.90
2.80
0.53
-1.57
-3.21
-4.31
-5.02
-5.63
-6.40
-7.49
-8.91
-10.55
-12.30
-14.06
-15.75
-17.32
-18.78
-20.20
-21.72
-23.51
-25.60
-27.79
-29.63
-30.55
-29.98
-27.65
-23.57
-18.11
-11.87
-5.51
0.37
5.35
9.25
12.04
13.78
14.58
14.58
13.97
13.05
12.18
11.71
11.83
12.52
13.56
14.64
15.52
16.09
16.37
16.45
16.37
16.15
15.79
15.27
14.65
14.01
13.43
12.94
12.51
12.01
11.28
10.21
8.77
7.07
5.29
3.66
2.29
1.18
0.25
-0.60
-1.44
-2.34
-3.36
-4.60
-6.11
-7.87
-9.80
-11.76
-13.67
-15.54
-17.42
-19.30
-20.98
-22.07
-22.11
-20.74
-17.88
-13.76
-8.86
-3.73
1.17
5.52
9.20
12.14
14.35
15.75
16.28
15.98
15.05
13.83
12.77
12.17
12.10
12.40
12.77
12.97
12.96
12.87
12.87
13.07
13.43
13.75
13.81
13.46
12.63
11.37
9.79
7.98
6.10
4.25
2.51
0.91
-0.58
-2.00
-3.41
-4.87
-6.40
-7.95
-9.48
-10.92
-12.20
-13.34
-14.44
-15.64
-17.09
-18.87
-20.98
-23.37
-25.90
-28.37
-30.47
-31.76
-31.80
-30.26
-27.10
-22.56
-17.14
-11.39
-5.81
-0.74
3.64
7.24
10.01
11.99
13.28
13.99
14.31
14.42
14.45
14.53
14.69
14.93
15.18
15.42
15.59
15.76
16.00
16.33
16.73
17.03
17.04
16.63
15.81
14.69
13.42
12.13
10.88
9.64
8.38
7.06
5.69
4.27
2.83
1.37
-0.08
-1.49
-2.79
-3.96
-5.02
-6.08
-7.26
-8.64
-10.22
-11.90
-13.57
-15.13
-16.61
-18.13
-19.88
-21.97
-24.40
-26.98
-29.33
-31.01
-31.57
-30.67
-28.19
-24.25
-19.22
-13.61
-7.96
-2.72
1.86
5.69
8.80
11.23
13.02
14.22
14.92
15.26
15.44
15.59
15.77
15.92
15.94
15.78
15.46
15.11
14.91
14.98
15.36
15.97
16.62
17.06
17.08
16.57
15.54
14.17
12.65
11.12
9.60
8.01
6.27
4.36
2.38
0.49
-1.18
-2.58
-3.70
-4.56
-5.21
-5.75
-6.30
-7.08
-8.21
-9.67
-11.28
-12.76
-13.92
-14.68
-15.19
-15.68
-16.42
-17.64
-19.53
-22.11
-25.17
-28.20
-30.45
-31.12
-29.67
-26.08
-20.84
-14.83
-8.94
-3.84
0.19
3.20
5.46
7.23
8.74
10.07
11.20
12.10
12.71
13.05
13.21
13.26
13.29
13.30
13.31
13.36
13.53
13.93
14.57
15.39
16.20
16.73
16.83
16.42
15.58
14.46
13.19
11.86
10.52
9.19
7.88
6.60
5.40
4.28
3.27
2.37
1.58
0.83
0.05
-0.86
-1.96
-3.20
-4.43
-5.43
-6.05
-6.32
-6.46
-6.89
-8.04
-10.16
-13.16
-16.56
-19.60
-21.52
-21.78
-20.23
-17.10
-12.89
-8.17
-3.42
0.98
4.81
7.94
10.32
11.98
12.95
13.30
13.15
12.60
11.85
11.06
10.39
9.90
9.54
9.24
8.95
8.73
8.69
8.91
9.41
10.08
10.72
11.14
11.16
10.70
9.75
8.39
6.73
4.94
3.19
1.56
0.10
-1.20
-2.39
-3.45
-4.43
-5.38
-6.35
-7.40
-8.54
-9.72
-10.85
-11.87
-12.78
-13.74
-14.95
-16.63
-18.91
-21.75
-24.81
-27.56
-29.37
-29.68
-28.20
-25.03
-20.56
-15.45
-10.33
-5.67
-1.78
1.29
3.65
5.47
6.91
8.09
9.04
9.76
10.23
10.49
10.60
10.67
10.71
10.70
10.58
10.35
10.09
9.99
10.18
10.67
11.34
11.93
12.26
12.24
11.88
11.23
10.38
9.30
8.01
6.52
4.92
3.28
1.68
0.13
-1.35
-2.72
-3.98
-5.10
-6.10
-7.06
-8.09
-9.21
-10.42
-11.66
-12.88
-14.16
-15.63
-17.48
-19.81
-22.49
-25.13
-27.13
-27.88
-26.99
-24.43
-20.55
-15.90
-11.05
-6.38
-2.06
1.83
5.23
8.00
9.98
11.11
11.50
11.40
11.11
10.86
10.73
10.71
10.71
10.66
10.60
10.61
10.79
11.19
11.72
12.24
12.54
12.48
12.06
11.39
10.61
9.88
9.21
8.55
7.78
6.78
5.53
4.09
2.56
1.09
-0.20
-1.25
-2.13
-2.96
-3.91
-5.07
-6.43
-7.88
-9.18
-10.17
-10.79
-11.14
-11.45
-12.04
-13.19
-15.09
-17.69
-20.65
-23.43
-25.39
-25.96
-24.84
-22.08
-17.99
-13.09
-7.94
-3.04
1.22
4.59
7.00
8.52
9.32
9.68
9.83
9.93
10.05
10.18
10.31
10.43
10.55
10.68
10.81
10.95
11.10
11.29
11.55
11.88
12.22
12.53
12.77
12.90
12.87
12.60
11.99
10.97
9.58
7.96
6.37
5.00
3.99
3.26
2.67
2.02
1.20
0.22
-0.86
-1.95
-3.01
-3.99
-4.90
-5.77
-6.74
-7.96
-9.66
-11.91
-14.61
-17.40
-19.74
-21.06
-20.95
-19.26
-16.15
-12.01
-7.38
-2.78
1.32
4.69
7.23
8.99
10.10
10.66
10.75
10.44
9.85
9.19
8.67
8.45
8.56
8.88
9.22
9.44
9.52
9.54
9.65
9.92
10.27
10.52
10.44
9.89
8.87
7.49
5.97
4.52
3.26
2.19
1.22
0.19
-1.00
-2.37
-3.83
-5.23
-6.45
-7.46
-8.32
-9.18
-10.16
-11.32
-12.66
-14.16
-15.86
-17.84
-20.18
-22.82
-25.51
-27.74
-28.92
-28.57
-26.55
-23.04
-18.56
-13.69
-8.90
-4.47
-0.54
2.86
5.65
7.79
9.25
10.14
10.65
11.04
11.52
12.15
12.90
13.59
14.10
14.38
14.49
14.54
14.66
14.90
15.22
15.50
15.60
15.42
14.89
14.06
13.02
11.85
10.67
9.52
8.44
7.40
6.37
5.28
4.10
2.79
1.38
-0.09
-1.61
-3.18
-4.81
-6.52
-8.30
-10.10
-11.90
-13.68
-15.45
-17.28
-19.24
-21.40
-23.76
-26.18
-28.34
-29.83
-30.23
-29.24
-26.84
-23.26
-18.92
-14.26
-9.66
-5.36
-1.43
2.06
5.10
7.64
9.66
11.18
12.25
12.96
13.40
13.64
13.76
13.76
13.66
13.45
13.19
12.93
12.82
12.93
13.29
13.85
14.45
14.89
15.01
14.71
13.96
12.82
11.37
9.76
8.17
6.75
5.63
4.83
4.25
3.74
3.14
2.37
1.47
0.53
-0.34
-1.13
-1.92
-2.82
-3.91
-5.18
-6.54
-7.90
-9.19
-10.44
-11.76
-13.27
-15.08
-17.24
-19.74
-22.45
-25.13
-27.41
-28.89
-29.19
-28.08
-25.55
-21.79
-17.17
-12.16
-7.19
-2.60
1.37
4.65
7.25
9.22
10.66
11.61
12.15
12.39
12.47
12.54
12.69
12.96
13.28
13.63
13.96
14.31
14.71
15.18
15.65
16.02
16.19
16.08
15.68
15.04
14.23
13.35
12.45
11.56
10.66
9.67
8.55
7.27
5.91
4.59
3.41
2.38
1.43
0.43
-0.74
-2.10
-3.58
-5.06
-6.40
-7.57
-8.64
-9.75
-11.12
-12.91
-15.21
-17.88
-20.56
-22.77
-23.98
-23.82
-22.14
-19.07
-14.97
-10.31
-5.54
-1.08
2.81
5.92
8.21
9.73
10.60
11.02
11.16
11.14
11.06
10.96
10.88
10.82
10.81
10.86
11.01
11.32
11.80
12.39
12.99
13.39
13.43
13.01
12.20
11.14
9.97
8.74
7.40
5.85
4.05
2.11
0.21
-1.46
-2.80
-3.86
-4.77
-5.73
-6.88
-8.26
-9.84
-11.48
-13.03
-14.38
-15.51
-16.55
-17.73
-19.31
-21.40
-23.87
-26.34
-28.30
-29.30
-29.05
-27.44
-24.56
-20.58
-15.79
-10.56
-5.32
-0.49
3.59
6.78
9.13
10.79
11.96
12.76
13.27
13.57
13.78
14.04
14.46
14.99
15.52
15.92
16.14
16.28
16.50
16.92
17.52
18.10
18.41
18.26
17.59
16.46
14.98
13.27
11.42
9.48
7.54
5.68
3.98
2.46
1.11
-0.09
-1.18
-2.21
-3.24
-4.37
-5.66
-7.19
-8.92
-10.75
-12.51
-14.06
-15.38
-16.60
-17.94
-19.73
-22.16
-25.19
-28.47
-31.34
-33.10
-33.18
-31.37
-27.85
-23.08
-17.64
-12.04
-6.67
-1.80
2.35
5.67
8.12
9.78
10.83
11.48
11.92
12.26
12.56
12.84
13.08
13.24
13.29
13.19
13.02
12.94
13.13
13.73
14.65
15.65
16.34
16.44
15.83
14.68
13.31
12.07
11.12
10.42
9.77
8.92
7.78
6.39
4.97
3.67
2.57
1.60
0.62
-0.48
-1.69
-2.96
-4.21
-5.42
-6.64
-7.91
-9.23
-10.51
-11.70
-12.80
-14.01
-15.58
-17.72
-20.40
-23.25
-25.66
-26.91
-26.52
-24.29
-20.49
-15.67
-10.44
-5.37
-0.78
3.17
6.50
9.25
11.45
13.05
14.00
14.28
14.01
13.40
12.76
12.37
12.41
12.85
13.55
14.31
15.02
15.65
16.24
16.76
17.10
17.09
16.61
15.67
14.44
13.18
12.03
11.03
10.06
8.94
7.57
6.00
4.40
2.95
1.77
0.79
-0.14
-1.24
-2.64
-4.29
-6.03
-7.64
-8.97
-10.02
-10.96
-12.08
-13.64
-15.80
-18.48
-21.43
-24.18
-26.17
-26.91
-26.03
-23.47
-19.45
-14.46
-9.13
-4.10
0.19
3.52
5.95
7.65
8.88
9.82
10.55
11.06
11.32
11.31
11.13
10.86
10.63
10.50
10.48
10.60
10.87
11.31
11.91
12.61
13.24
13.64
13.68
13.33
12.67
11.80
10.80
9.64
8.25
6.58
4.64
2.57
0.56
-1.21
-2.67
-3.88
-4.98
-6.10
-7.32
-8.65
-10.06
-11.49
-12.91
-14.31
-15.74
-17.27
-18.99
-20.99
-23.24
-25.54
-27.50
-28.60
-28.37
-26.54
-23.16
-18.56
-13.26
-7.80
-2.65
1.86
5.55
8.35
10.33
11.67
12.55
13.17
13.65
14.03
14.31
14.46
14.47
14.36
14.15
13.91
13.74
13.74
13.99
14.50
15.17
15.82
16.23
16.22
15.72
14.72
13.32
11.62
9.73
7.80
5.92
4.17
2.60
1.20
-0.09
-1.31
-2.55
-3.84
-5.18
-6.56
-7.92
-9.23
-10.47
-11.69
-12.98
-14.45
-16.21
-18.29
-20.67
-23.22
-25.73
-27.88
-29.31
-29.67
-28.70
-26.37
-22.82
-18.39
-13.52
-8.61
-4.00
0.07
3.42
6.01
7.90
9.22
10.16
10.88
11.49
12.02
12.42
12.62
12.59
12.36
12.02
11.71
11.53
11.51
11.65
11.84
11.99
12.01
11.86
11.56
11.17
10.75
10.29
9.74
9.05
8.10
6.89
5.44
3.88
2.38
1.11
0.14
-0.55
-1.07
-1.55
-2.14
-2.87
-3.74
-4.70
-5.70
-6.74
-7.80
-8.92
-10.14
-11.50
-13.04
-14.81
-16.84
-19.04
-21.20
-22.96
-23.92
-23.72
-22.19
-19.39
-15.58
-11.17
-6.62
-2.32
1.43
4.51
6.87
8.60
9.80
10.57
10.95
10.98
10.73
10.31
9.89
9.63
9.62
9.86
10.29
10.84
11.46
12.12
12.80
13.42
13.90
14.11
13.95
13.38
12.43
11.17
9.74
8.25
6.84
5.58
4.49
3.55
2.68
1.85
0.99
0.11
-0.78
-1.69
-2.60
-3.53
-4.45
-5.33
-6.18
-7.06
-8.13
-9.58
-11.51
-13.88
-16.38
-18.54
-19.80
-19.75
-18.21
-15.35
-11.49
-7.12
-2.69
1.44
5.01
7.87
9.97
11.34
12.06
12.27
12.11
11.69
11.13
10.50
9.88
9.34
8.95
8.75
8.77
9.00
9.39
9.86
10.32
10.70
10.91
10.88
10.51
9.73
8.50
6.91
5.17
3.52
2.15
1.06
0.10
-1.03
-2.55
-4.47
-6.62
-8.70
-10.41
-11.61
-12.38
-12.93
-13.55
-14.41
-15.58
-17.04
-18.73
-20.64
-22.77
-25.06
-27.25
-28.91
-29.53
-28.70
-26.31
-22.61
-18.06
-13.19
-8.40
-3.93
0.12
3.70
6.71
9.08
10.77
11.85
12.47
12.84
13.13
13.40
13.63
13.69
13.50
13.07
12.57
12.26
12.36
12.92
13.81
14.71
15.28
15.33
14.82
13.90
12.77
11.56
10.32
9.04
7.70
6.32
4.93
3.62
2.38
1.20
0.04
-1.13
-2.33
-3.53
-4.69
-5.81
-6.92
-8.05
-9.22
-10.42
-11.64
-12.90
-14.33
-16.09
-18.31
-21.02
-24.05
-27.02
-29.46
-30.87
-30.90
-29.40
-26.45
-22.32
-17.40
-12.17
-7.01
-2.29
1.77
5.07
7.60
9.47
10.81
11.81
12.59
13.23
13.76
14.17
14.48
14.71
14.92
15.14
15.37
15.62
15.84
16.03
16.19
16.29
16.25
15.97
15.32
14.28
12.95
11.50
10.14
8.99
8.04
7.17
6.27
5.21
4.01
2.72
1.44
0.26
-0.80
-1.77
-2.70
-3.68
-4.77
-6.05
-7.48
-8.98
-10.42
-11.65
-12.64
-13.47
-14.36
-15.58
-17.35
-19.70
-22.44
-25.12
-27.21
-28.23
-27.89
-26.14
-23.15
-19.23
-14.71
-9.90
-5.06
-0.45
3.69
7.12
9.71
11.44
12.45
12.92
13.04
12.93
12.64
12.23
11.79
11.47
11.40
11.60
12.04
12.59
13.12
13.55
13.91
14.22
14.50
14.68
14.62
14.19
13.33
12.14
10.77
9.42
8.18
7.08
6.02
4.93
3.77
2.57
1.39
0.29
-0.76
-1.84
-3.01
-4.28
-5.53
-6.59
-7.35
-7.82
-8.20
-8.82
-9.98
-11.88
-14.46
-17.47
-20.48
-23.01
-24.56
-24.75
-23.35
-20.35
-15.99
-10.75
-5.15
0.26
5.12
9.20
12.44
14.81
16.29
16.90
16.74
15.98
14.91
13.82
12.95
12.42
12.23
12.30
12.50
12.69
12.80
12.77
12.63
12.45
12.26
12.08
11.81
11.30
10.39
8.98
7.11
4.98
2.86
1.01
-0.49
-1.73
-2.93
-4.31
-5.95
-7.77
-9.52
-10.99
-12.08
-12.90
-13.71
-14.78
-16.31
-18.34
-20.81
-23.55
-26.32
-28.80
-30.63
-31.41
-30.87
-28.89
-25.54
-21.07
-15.85
-10.26
-4.70
0.48
5.03
8.74
11.50
13.27
14.11
14.15
13.66
12.97
12.41
12.16
12.25
12.52
12.76
12.86
12.85
12.85
12.99
13.27
13.57
13.78
13.79
13.59
13.16
12.45
11.40
9.96
8.20
6.30
4.45
2.77
1.26
-0.15
-1.58
-3.10
-4.72
-6.40
-8.13
-9.86
-11.56
-13.14
-14.54
-15.82
-17.16
-18.85
-21.16
-24.11
-27.40
-30.43
-32.46
-32.92
-31.50
-28.31
-23.69
-18.15
-12.22
-6.34
-0.88
3.93
7.94
11.14
13.59
15.37
16.55
17.17
17.35
17.23
17.00
16.85
16.82
16.83
16.78
16.64
16.48
16.49
16.76
17.28
17.82
18.13
18.00
17.39
16.39
15.15
13.74
12.13
10.30
8.27
6.15
4.16
2.45
1.03
-0.21
-1.42
-2.76
-4.27
-5.91
-7.60
-9.27
-10.89
-12.47
-14.03
-15.58
-17.18
-18.91
-20.91
-23.34
-26.26
-29.51
-32.70
-35.22
-36.36
-35.60
-32.71
-27.88
-21.66
-14.81
-8.11
-2.17
2.67
6.33
8.96
10.82
12.20
13.31
14.27
15.11
15.76
16.21
16.43
16.48
16.48
16.56
16.82
17.30
17.95
18.66
19.28
19.69
19.84
19.70
19.27
18.56
17.56
16.30
14.87
13.37
11.90
10.49
9.07
7.53
5.84
4.03
2.25
0.63
-0.73
-1.88
-2.92
-3.99
-5.17
-6.48
-7.82
-9.09
-10.21
-11.21
-12.25
-13.58
-15.47
-18.03
-21.13
-24.34
-27.04
-28.60
-28.52
-26.61
-22.97
-17.98
-12.19
-6.18
-0.50
4.47
8.47
11.47
13.53
14.81
15.43
15.48
15.06
14.27
13.31
12.43
11.89
11.85
12.34
13.21
14.27
15.30
16.18
16.88
17.44
17.91
18.26
18.36
18.03
17.11
15.57
13.53
11.26
9.03
7.04
5.35
3.86
2.39
0.83
-0.83
-2.50
-4.06
-5.46
-6.71
-7.89
-9.10
-10.37
-11.72
-13.19
-14.93
-17.12
-19.88
-23.07
-26.29
-28.85
-30.00
-29.20
-26.30
-21.57
-15.60
-9.14
-2.88
2.64
7.16
10.58
12.97
14.47
15.21
15.37
15.08
14.49
13.74
12.96
12.26
11.71
11.37
11.27
11.44
11.88
12.55
13.37
14.18
14.82
15.12
15.01
14.43
13.41
11.98
10.21
8.16
5.96
3.74
1.65
-0.21
-1.85
-3.36
-4.87
-6.48
-8.21
-9.97
-11.68
-13.28
-14.74
-16.10
-17.40
-18.74
-20.30
-22.31
-24.97
-28.22
-31.69
-34.69
-36.43
-36.29
-33.98
-29.68
-23.86
-17.20
-10.36
-3.93
1.70
6.28
9.75
12.27
14.07
15.41
16.46
17.27
17.84
18.09
17.98
17.55
16.92
16.28
15.87
15.89
16.38
17.19
18.06
18.69
18.88
18.59
17.91
16.96
15.80
14.46
12.93
11.23
9.40
7.50
5.59
3.74
2.02
0.48
-0.89
-2.19
-3.58
-5.23
-7.21
-9.41
-11.60
-13.56
-15.16
-16.48
-17.70
-19.08
-20.84
-23.12
-25.95
-29.20
-32.52
-35.36
-37.05
-37.02
-34.95
-30.92
-25.39
-19.05
-12.62
-6.69
-1.58
2.60
5.94
8.58
10.69
12.36
13.64
14.56
15.17
15.59
15.95
16.34
16.69
16.90
16.83
16.49
16.05
15.79
15.97
16.61
17.49
18.28
18.59
18.24
17.24
15.78
14.06
12.30
10.56
8.85
7.14
5.42
3.79
2.37
1.26
0.47
-0.16
-0.83
-1.77
-3.06
-4.62
-6.25
-7.73
-8.92
-9.88
-10.75
-11.69
-12.81
-14.20
-15.89
-17.96
-20.39
-23.02
-25.48
-27.23
-27.66
-26.34
-23.19
-18.49
-12.82
-6.85
-1.18
3.81
7.92
11.12
13.43
14.90
15.61
15.71
15.39
14.87
14.33
13.87
13.56
13.42
13.49
13.82
14.40
15.16
15.96
16.64
17.06
17.19
17.01
16.55
15.80
14.74
13.38
11.76
9.95
8.05
6.10
4.13
2.14
0.15
-1.80
-3.64
-5.34
-6.89
-8.30
-9.55
-10.65
-11.59
-12.39
-13.18
-14.14
-15.54
-17.58
-20.31
-23.55
-26.84
-29.56
-31.06
-30.84
-28.72
-24.82
-19.55
-13.51
-7.33
-1.58
3.32
7.16
9.93
11.78
12.90
13.49
13.68
13.60
13.35
13.07
12.83
12.65
12.48
12.26
12.03
11.90
12.05
12.58
13.44
14.37
15.07
15.27
14.85
13.86
12.49
10.94
9.39
7.92
6.57
5.27
3.91
2.41
0.72
-1.16
-3.14
-5.14
-7.06
-8.84
-10.47
-11.96
-13.33
-14.61
-15.88
-17.24
-18.84
-20.81
-23.18
-25.87
-28.63
-31.06
-32.73
-33.25
-32.36
-29.97
-26.15
-21.12
-15.21
-8.88
-2.69
2.79
7.16
10.22
12.13
13.24
13.94
14.50
15.04
15.50
15.77
15.80
15.62
15.36
15.18
15.20
15.52
16.14
16.96
17.77
18.34
18.44
18.02
17.11
15.91
14.58
13.27
12.03
10.77
9.41
7.83
6.02
4.05
2.13
0.43
-0.98
-2.19
-3.45
-4.99
-6.89
-9.00
-11.07
-12.84
-14.28
-15.50
-16.75
-18.24
-20.03
-22.13
-24.55
-27.28
-30.20
-33.00
-35.06
-35.67
-34.27
-30.74
-25.44
-19.09
-12.49
-6.30
-0.93
3.44
6.80
9.20
10.82
11.86
12.55
13.07
13.48
13.75
13.85
13.76
13.52
13.26
13.12
13.20
13.55
14.15
14.90
15.68
16.31
16.63
16.54
15.98
15.02
13.82
12.55
11.33
10.21
9.16
8.08
6.91
5.67
4.45
3.32
2.32
1.36
0.33
-0.86
-2.20
-3.61
-4.98
-6.22
-7.28
-8.21
-9.04
-9.83
-10.69
-11.78
-13.32
-15.45
-18.12
-20.99
-23.45
-24.79
-24.42
-22.10
-18.04
-12.78
-7.09
-1.61
3.21
7.18
10.31
12.66
14.32
15.34
15.77
15.74
15.39
14.88
14.36
13.93
13.65
13.50
13.47
13.54
13.66
13.81
14.01
14.23
14.46
14.63
14.64
14.37
13.69
12.59
11.12
9.41
7.61
5.82
4.07
2.37
0.71
-0.90
-2.44
-3.89
-5.21
-6.43
-7.54
-8.60
-9.67
-10.86
-12.25
-13.94
-15.92
-18.15
-20.55
-22.94
-25.12
-26.77
-27.54
-27.08
-25.18
-21.85
-17.37
-12.20
-6.87
-1.90
2.37
5.73
8.17
9.77
10.72
11.21
11.45
11.57
11.69
11.86
12.11
12.41
12.71
12.93
13.00
12.94
12.82
12.76
12.82
13.01
13.21
13.26
13.03
12.42
11.37
9.91
8.14
6.23
4.38
2.75
1.40
0.26
-0.80
-1.93
-3.21
-4.63
-6.13
-7.66
-9.16
-10.55
-11.76
-12.77
-13.70
-14.76
-16.25
-18.35
-21.06
-24.07
-26.89
-28.96
-29.86
-29.38
-27.54
-24.58
-20.74
-16.34
-11.61
-6.82
-2.24
1.87
5.34
8.07
10.11
11.58
12.63
13.36
13.82
14.04
14.09
14.05
14.03
14.05
14.10
14.13
14.14
14.20
14.36
14.68
15.09
15.44
15.53
15.21
14.43
13.22
11.70
10.00
8.25
6.56
5.00
3.57
2.25
0.94
-0.42
-1.85
-3.34
-4.82
-6.27
-7.67
-9.03
-10.36
-11.65
-12.89
-14.09
-15.34
-16.72
-18.35
-20.26
-22.39
-24.59
-26.62
-28.25
-29.21
-29.26
-28.16
-25.80
-22.18
-17.56
-12.33
-7.03
-2.14
2.00
5.27
7.71
9.44
10.59
11.24
11.51
11.57
11.63
11.87
12.35
12.95
13.45
13.64
13.51
13.20
12.97
13.05
13.49
14.15
14.79
15.17
15.12
14.60
13.66
12.40
10.94
9.42
7.92
6.52
5.22
4.01
2.88
1.84
0.91
0.10
-0.59
-1.19
-1.78
-2.43
-3.21
-4.17
-5.30
-6.54
-7.77
-8.84
-9.71
-10.45
-11.28
-12.47
-14.15
-16.21
-18.29
-19.86
-20.36
-19.42
-16.90
-12.99
-8.09
-2.75
2.48
7.13
10.87
13.53
15.07
15.59
15.29
14.50
13.56
12.76
12.22
11.93
11.74
11.47
11.05
10.53
10.05
9.79
9.84
10.17
10.63
11.04
11.27
11.23
10.90
10.26
9.33
8.11
6.65
5.01
3.31
1.64
0.09
-1.34
-2.67
-3.97
-5.28
-6.59
-7.88
-9.12
-10.30
-11.37
-12.37
-13.30
-14.30
-15.51
-17.11
-19.13
-21.43
-23.63
-25.23
-25.77
-24.97
-22.78
-19.42
-15.26
-10.70
-6.14
-1.86
1.95
5.18
7.78
9.74
11.02
11.67
11.75
11.48
11.10
10.86
10.90
11.18
11.52
11.68
11.54
11.11
10.55
10.11
9.98
10.27
10.92
11.75
12.50
12.88
12.70
11.85
10.43
8.65
6.80
5.06
3.52
2.11
0.72
-0.74
-2.27
-3.76
-5.12
-6.32
-7.39
-8.43
-9.53
-10.74
-12.04
-13.47
-15.10
-17.07
-19.50
-22.37
-25.43
-28.21
-30.09
-30.56
-29.34
-26.55
-22.63
-18.16
-13.69
-9.54
-5.78
-2.34
0.85
3.75
6.21
8.09
9.31
9.97
10.27
10.45
10.65
10.84
10.92
10.78
10.43
10.01
9.74
9.79
10.18
10.77
11.31
11.59
11.51
11.14
10.61
10.09
9.67
9.30
8.86
8.15
7.06
5.56
3.80
2.04
0.54
-0.57
-1.29
-1.79
-2.26
-2.81
-3.44
-4.08
-4.69
-5.27
-5.94
-6.82
-7.96
-9.36
-10.96
-12.73
-14.66
-16.78
-19.01
-21.17
-22.89
-23.81
-23.58
-22.02
-19.20
-15.37
-10.95
-6.40
-2.11
1.68
4.82
7.28
9.08
10.27
10.92
11.15
11.12
10.96
10.75
10.53
10.25
9.94
9.69
9.65
9.96
10.66
11.63
12.60
13.31
13.60
13.44
12.97
12.35
11.69
11.01
10.24
9.33
8.23
7.00
5.77
4.66
3.77
3.14
2.69
2.27
1.73
0.92
-0.17
-1.43
-2.66
-3.66
-4.34
-4.77
-5.21
-5.95
-7.24
-9.17
-11.65
-14.42
-17.12
-19.34
-20.68
-20.80
-19.47
-16.70
-12.68
-7.85
-2.72
2.16
6.35
9.60
11.84
13.14
13.62
13.46
12.82
11.88
10.83
9.90
9.27
9.01
9.06
9.27
9.49
9.65
9.81
10.08
10.56
11.19
11.80
12.16
12.05
11.40
10.26
8.74
6.98
5.11
3.25
1.53
0.03
-1.23
-2.33
-3.40
-4.56
-5.82
-7.10
-8.22
-9.10
-9.80
-10.48
-11.37
-12.62
-14.27
-16.31
-18.70
-21.37
-24.18
-26.82
-28.83
-29.68
-28.97
-26.60
-22.79
-18.06
-12.97
-8.03
-3.57
0.27
3.45
6.03
8.07
9.63
10.77
11.54
12.02
12.34
12.62
12.94
13.32
13.73
14.06
14.25
14.31
14.34
14.43
14.66
14.99
15.31
15.44
15.26
14.73
13.90
12.87
11.72
10.47
9.06
7.43
5.56
3.59
1.72
0.18
-0.89
-1.50
-1.88
-2.34
-3.17
-4.52
-6.29
-8.23
-10.08
-11.63
-12.87
-13.98
-15.21
-16.83
-18.96
-21.60
-24.59
-27.57
-30.07
-31.54
-31.50
-29.67
-26.14
-21.32
-15.90
-10.55
-5.82
-1.98
0.98
3.25
5.09
6.72
8.28
9.81
11.24
12.48
13.45
14.07
14.36
14.35
14.12
13.80
13.52
13.41
13.56
13.98
14.57
15.16
15.58
15.67
15.40
14.81
13.97
13.00
11.96
10.88
9.78
8.63
7.37
5.97
4.37
2.63
0.86
-0.76
-2.09
-3.04
-3.71
-4.27
-4.94
-5.88
-7.10
-8.49
-9.89
-11.12
-12.14
-12.98
-13.77
-14.70
-15.92
-17.57
-19.65
-22.05
-24.50
-26.59
-27.82
-27.71
-25.98
-22.65
-18.06
-12.79
-7.48
-2.58
1.63
5.12
7.92
10.05
11.47
12.14
12.17
11.81
11.41
11.30
11.59
12.18
12.84
13.33
13.59
13.73
13.93
14.34
14.96
15.62
16.09
16.20
15.90
15.22
14.29
13.20
12.08
11.02
10.08
9.29
8.57
7.85
7.00
5.96
4.72
3.32
1.83
0.34
-1.07
-2.34
-3.45
-4.46
-5.48
-6.61
-7.89
-9.31
-10.83
-12.47
-14.35
-16.52
-18.92
-21.21
-22.85
-23.29
-22.21
-19.64
-15.96
-11.68
-7.25
-2.97
1.06
4.76
8.00
10.60
12.36
13.19
13.20
12.67
11.90
11.17
10.61
10.20
9.87
9.55
9.29
9.19
9.35
9.82
10.50
11.23
11.82
12.15
12.12
11.73
10.97
9.87
8.48
6.89
5.23
3.62
2.15
0.82
-0.44
-1.74
-3.20
-4.84
-6.61
-8.35
-9.86
-11.01
-11.79
-12.34
-12.90
-13.71
-14.95
-16.65
-18.74
-21.10
-23.60
-26.00
-28.04
-29.35
-29.56
-28.39
-25.80
-21.97
-17.29
-12.25
-7.31
-2.81
1.04
4.20
6.69
8.62
10.08
11.14
11.85
12.24
12.43
12.56
12.79
13.15
13.56
13.84
13.86
13.63
13.35
13.32
13.72
14.51
15.36
15.89
15.79
15.01
13.75
12.35
11.04
9.92
8.86
7.67
6.26
4.66
3.03
1.52
0.23
-0.89
-1.96
-3.10
-4.35
-5.65
-6.93
-8.12
-9.27
-10.44
-11.73
-13.22
-14.96
-17.00
-19.38
-22.05
-24.80
-27.28
-28.99
-29.47
-28.43
-25.87
-22.10
-17.56
-12.72
-7.94
-3.48
0.53
4.00
6.85
9.02
10.51
11.41
11.87
12.06
12.16
12.23
12.28
12.26
12.17
12.07
12.07
12.27
12.72
13.36
14.03
14.50
14.61
14.30
13.63
12.75
11.84
10.96
10.13
9.25
8.19
6.89
5.36
3.69
2.01
0.45
-0.90
-2.03
-2.99
-3.85
-4.72
-5.64
-6.59
-7.57
-8.52
-9.48
-10.48
-11.59
-12.84
-14.23
-15.77
-17.48
-19.42
-21.53
-23.62
-25.27
-25.95
-25.20
-22.84
-19.04
-14.29
-9.13
-4.06
0.60
4.70
8.12
10.77
12.58
13.52
13.71
13.34
12.68
11.94
11.23
10.65
10.23
10.03
10.07
10.36
10.84
11.40
11.94
12.37
12.63
12.72
12.68
12.53
12.25
11.78
11.03
9.95
8.60
7.11
5.65
4.34
3.18
2.10
0.99
-0.18
-1.37
-2.48
-3.45
-4.32
-5.16
-6.03
-6.87
-7.62
-8.23
-8.88
-9.86
-11.52
-13.96
-16.89
-19.67
-21.48
-21.70
-20.10
-16.95
-12.80
-8.27
-3.79
0.42
4.30
7.83
10.89
13.31
14.87
15.50
15.26
14.37
13.16
11.99
11.11
10.67
10.64
10.88
11.21
11.47
11.62
11.69
11.79
11.93
12.08
12.12
11.88
11.26
10.23
8.89
7.42
5.98
4.61
3.31
1.95
0.45
-1.20
-2.91
-4.56
-6.07
-7.42
-8.68
-9.98
-11.38
-12.87
-14.45
-16.13
-17.99
-20.12
-22.52
-25.01
-27.18
-28.49
-28.48
-26.88
-23.71
-19.31
-14.22
-8.98
-4.08
0.23
3.90
6.98
9.56
11.64
13.17
14.07
14.37
14.20
13.80
13.42
13.22
13.21
13.32
13.47
13.60
13.73
13.93
14.22
14.58
14.96
15.23
15.24
14.86
14.02
12.73
11.08
9.27
7.44
5.74
4.19
2.73
1.30
-0.17
-1.65
-3.04
-4.25
-5.20
-5.96
-6.70
-7.61
-8.84
-10.39
-12.19
-14.15
-16.30
-18.76
-21.62
-24.77
-27.81
-30.07
-30.90
-29.91
-27.10
-22.86
-17.79
-12.45
-7.21
-2.29
2.15
5.92
8.85
10.82
11.91
12.37
12.59
12.87
13.39
14.07
14.69
15.04
15.02
14.71
14.32
14.08
14.14
14.49
15.03
15.57
15.97
16.13
16.02
15.65
15.05
14.21
13.13
11.83
10.32
8.67
6.92
5.13
3.32
1.53
-0.27
-2.05
-3.81
-5.50
-7.07
-8.46
-9.64
-10.69
-11.71
-12.88
-14.32
-16.09
-18.16
-20.47
-22.97
-25.59
-28.17
-30.43
-31.91
-32.16
-30.85
-27.90
-23.57
-18.30
-12.66
-7.16
-2.21
1.92
5.11
7.43
9.03
10.13
10.92
11.51
11.94
12.25
12.49
12.76
13.10
13.43
13.64
13.61
13.36
13.07
12.98
13.31
14.02
14.89
15.56
15.72
15.23
14.16
12.71
11.09
9.49
7.98
6.58
5.25
3.98
2.77
1.65
0.69
-0.09
-0.69
-1.20
-1.72
-2.41
-3.35
-4.54
-5.86
-7.13
-8.20
-9.03
-9.73
-10.48
-11.52
-13.03
-15.06
-17.46
-19.94
-22.09
-23.44
-23.61
-22.33
-19.55
-15.49
-10.59
-5.40
-0.52
3.64
6.87
9.21
10.86
12.04
12.90
13.47
13.73
13.67
13.33
12.79
12.17
11.60
11.16
10.93
10.97
11.32
11.93
12.75
13.65
14.49
15.14
15.48
15.37
14.71
13.44
11.65
9.56
7.44
5.56
4.00
2.73
1.61
0.54
-0.50
-1.47
-2.36
-3.27
-4.36
-5.73
-7.34
-8.99
-10.41
-11.51
-12.49
-13.74
-15.66
-18.34
-21.45
-24.33
-26.21
-26.51
-25.03
-21.92
-17.59
-12.57
-7.35
-2.38
2.00
5.56
8.17
9.85
10.74
11.02
10.88
10.51
10.07
9.68
9.44
9.35
9.39
9.52
9.72
10.00
10.39
10.85
11.33
11.71
11.89
11.80
11.47
10.89
10.07
9.01
7.69
6.17
4.52
2.84
1.20
-0.35
-1.80
-3.13
-4.29
-5.25
-6.03
-6.71
-7.44
-8.33
-9.42
-10.67
-11.98
-13.31
-14.72
-16.37
-18.46
-21.03
-23.86
-26.49
-28.31
-28.78
-27.66
-25.02
-21.23
-16.76
-12.05
-7.40
-3.01
0.96
4.38
7.14
9.21
10.65
11.60
12.24
12.71
13.12
13.47
13.75
13.89
13.85
13.61
13.25
12.90
12.73
12.88
13.36
14.06
14.71
15.04
14.83
14.02
12.73
11.18
9.61
8.15
6.85
5.63
4.40
3.11
1.78
0.45
-0.84
-2.06
-3.26
-4.47
-5.71
-6.98
-8.28
-9.57
-10.86
-12.09
-13.22
-14.29
-15.38
-16.68
-18.38
-20.61
-23.36
-26.37
-29.26
-31.53
-32.76
-32.60
-30.92
-27.71
-23.20
-17.78
-12.01
-6.45
-1.59
2.33
5.27
7.40
8.89
9.89
10.49
10.78
10.90
11.05
11.40
12.01
12.73
13.36
13.74
13.88
13.95
14.17
14.70
15.51
16.37
17.03
17.25
16.92
16.05
14.76
13.22
11.65
10.16
8.85
7.70
6.63
5.55
4.41
3.24
2.10
1.08
0.18
-0.70
-1.66
-2.79
-4.08
-5.44
-6.75
-7.87
-8.77
-9.47
-10.13
-11.00
-12.31
-14.17
-16.54
-19.12
-21.47
-23.05
-23.47
-22.49
-20.18
-16.78
-12.67
-8.24
-3.82
0.32
3.98
7.05
9.50
11.37
12.73
13.67
14.18
14.24
13.84
13.07
12.14
11.37
10.99
11.10
11.60
12.23
12.78
13.13
13.30
13.43
13.59
13.75
13.81
13.66
13.23
12.51
11.54
10.32
8.85
7.14
5.29
3.43
1.74
0.31
-0.88
-1.90
-2.88
-3.93
-5.09
-6.36
-7.70
-9.01
-10.23
-11.31
-12.32
-13.42
-14.86
-16.85
-19.36
-22.10
-24.50
-25.95
-25.94
-24.33
-21.27
-17.16
-12.47
-7.60
-2.87
1.47
5.22
8.22
10.37
11.67
12.24
12.24
11.89
11.36
10.82
10.41
10.23
10.28
10.50
10.75
10.95
11.05
11.11
11.21
11.37
11.57
11.69
11.65
11.40
10.97
10.35
9.55
8.49
7.15
5.56
3.82
2.08
0.44
-1.11
-2.61
-4.16
-5.78
-7.41
-8.94
-10.23
-11.22
-11.94
-12.54
-13.27
-14.34
-15.91
-18.01
-20.52
-23.24
-25.86
-28.03
-29.36
-29.54
-28.31
-25.66
-21.73
-16.91
-11.65
-6.42
-1.60
2.60
6.13
9.02
11.33
13.14
14.45
15.28
15.64
15.59
15.27
14.83
14.41
14.05
13.75
13.50
13.29
13.17
13.22
13.43
13.74
14.00
14.06
13.84
13.33
12.61
11.73
10.71
9.48
7.95
6.08
3.91
1.59
-0.68
-2.65
-4.21
-5.32
-6.10
-6.80
-7.65
-8.83
-10.35
-12.07
-13.72
-15.10
-16.16
-17.01
-17.91
-19.14
-20.89
-23.20
-25.86
-28.50
-30.59
-31.57
-31.03
-28.78
-24.97
-20.03
-14.54
-9.08
-4.04
0.37
4.08
7.13
9.55
11.39
12.66
13.44
13.84
13.99
14.00
14.01
14.06
14.20
14.42
14.69
14.99
15.32
15.72
16.21
16.78
17.33
17.66
17.61
17.06
16.03
14.69
13.23
11.81
10.51
9.28
8.03
6.71
5.31
3.90
2.58
1.40
0.34
-0.68
-1.77
-2.95
-4.20
-5.42
-6.49
-7.36
-8.06
-8.72
-9.50
-10.59
-12.11
-14.16
-16.68
-19.47
-22.12
-24.09
-24.81
-23.90
-21.25
-17.11
-11.96
-6.37
-0.81
4.34
8.90
12.71
15.63
17.55
18.44
18.38
17.59
16.41
15.18
14.17
13.50
13.18
13.14
13.28
13.49
13.73
13.93
14.05
14.08
14.01
13.85
13.61
13.24
12.69
11.85
10.66
9.11
7.27
5.27
3.26
1.43
-0.11
-1.29
-2.21
-3.07
-4.12
-5.53
-7.29
-9.15
-10.82
-12.02
-12.75
-13.28
-14.03
-15.38
-17.56
-20.51
-23.95
-27.39
-30.24
-31.90
-31.90
-30.01
-26.34
-21.35
-15.65
-9.91
-4.64
-0.14
3.51
6.38
8.63
10.38
11.76
12.78
13.41
13.63
13.49
13.15
12.81
12.68
12.88
13.37
14.04
14.74
15.36
15.85
16.18
16.33
16.26
15.93
15.30
14.38
13.24
11.95
10.57
9.12
7.57
5.91
4.16
2.40
0.73
