Time_stamp,Value
1603462567.0,-0.00
1603462567.015625,-0.00
1603462567.03125,-0.00
1603462567.046875,-0.00
1603462567.0625,-0.00
1603462567.078125,-0.00
1603462567.09375,-0.00
1603462567.109375,-0.00
1603462567.125,-0.00
1603462567.140625,-0.00
1603462567.15625,0.00
1603462567.171875,0.01
1603462567.1875,0.01
1603462567.203125,-0.00
1603462567.21875,-0.03
1603462567.234375,-0.05
1603462567.25,-0.05
1603462567.265625,0.00
1603462567.28125,0.13
1603462567.296875,0.36
1603462567.3125,0.66
1603462567.328125,1.01
1603462567.34375,1.37
1603462567.359375,1.72
1603462567.375,2.06
1603462567.390625,2.40
1603462567.40625,2.79
1603462567.421875,3.24
1603462567.4375,3.80
1603462567.453125,4.42
1603462567.46875,5.06
1603462567.484375,5.66
1603462567.5,6.20
1603462567.515625,6.68
1603462567.53125,7.15
1603462567.546875,7.68
1603462567.5625,8.31
1603462567.578125,9.14
1603462567.59375,10.09
1603462567.609375,11.04
1603462567.625,11.88
1603462567.640625,12.56
1603462567.65625,13.14
1603462567.671875,13.76
1603462567.6875,14.65
1603462567.703125,15.96
1603462567.71875,17.91
1603462567.734375,20.32
1603462567.75,22.90
1603462567.765625,25.38
1603462567.78125,27.58
1603462567.796875,29.57
1603462567.8125,31.68
1603462567.828125,34.32
1603462567.84375,37.81
1603462567.859375,42.54
1603462567.875,48.15
1603462567.890625,54.10
1603462567.90625,59.83
1603462567.921875,64.97
1603462567.9375,69.58
1603462567.953125,74.14
1603462567.96875,79.34
1603462567.984375,85.71
1603462568.0,93.76
1603462568.015625,103.00
1603462568.03125,112.62
1603462568.046875,121.73
1603462568.0625,129.77
1603462568.078125,136.75
1603462568.09375,143.30
1603462568.109375,150.75
1603462568.125,157.77
1603462568.140625,166.64
1603462568.15625,177.95
1603462568.171875,191.79
1603462568.1875,206.97
1603462568.203125,220.57
1603462568.21875,228.25
1603462568.234375,225.36
1603462568.25,208.53
1603462568.265625,176.87
1603462568.28125,132.76
1603462568.296875,80.05
1603462568.3125,23.07
1603462568.328125,-34.94
1603462568.34375,-92.44
1603462568.359375,-149.16
1603462568.375,-205.23
1603462568.390625,-260.37
1603462568.40625,-313.74
1603462568.421875,-363.87
1603462568.4375,-409.83
1603462568.453125,-450.91
1603462568.46875,-486.50
1603462568.484375,-515.74
1603462568.5,-537.23
1603462568.515625,-549.22
1603462568.53125,-549.96
1603462568.546875,-538.37
1603462568.5625,-514.21
1603462568.578125,-478.67
1603462568.59375,-433.88
1603462568.609375,-382.45
1603462568.625,-327.02
1603462568.640625,-269.84
1603462568.65625,-212.63
1603462568.671875,-156.66
1603462568.6875,-102.95
1603462568.703125,-52.37
1603462568.71875,-5.90
1603462568.734375,35.58
1603462568.75,71.43
1603462568.765625,101.35
1603462568.78125,125.50
1603462568.796875,144.38
1603462568.8125,158.69
1603462568.828125,169.15
1603462568.84375,176.37
1603462568.859375,180.75
1603462568.875,182.58
1603462568.890625,182.09
1603462568.90625,179.54
1603462568.921875,175.26
1603462568.9375,169.65
1603462568.953125,163.11
1603462568.96875,156.00
1603462568.984375,148.57
1603462569.0,140.99
1603462569.015625,133.34
1603462569.03125,125.67
1603462569.046875,118.00
1603462569.0625,110.36
1603462569.078125,102.81
1603462569.09375,95.41
1603462569.109375,88.20
1603462569.125,81.26
1603462569.140625,74.61
1603462569.15625,68.30
1603462569.171875,62.32
1603462569.1875,56.65
1603462569.203125,51.27
1603462569.21875,46.13
1603462569.234375,41.23
1603462569.25,36.58
1603462569.265625,32.24
1603462569.28125,28.25
1603462569.296875,24.67
1603462569.3125,21.46
1603462569.328125,18.56
1603462569.34375,15.84
1603462569.359375,13.19
1603462569.375,10.58
1603462569.390625,8.05
1603462569.40625,5.75
1603462569.421875,3.83
1603462569.4375,2.39
1603462569.453125,1.39
1603462569.46875,0.65
1603462569.484375,-0.10
1603462569.5,-1.09
1603462569.515625,-2.42
1603462569.53125,-4.00
1603462569.546875,-5.54
1603462569.5625,-6.73
1603462569.578125,-7.35
1603462569.59375,-7.44
1603462569.609375,-7.29
1603462569.625,-7.33
1603462569.640625,-7.94
1603462569.65625,-9.25
1603462569.671875,-11.07
1603462569.6875,-12.96
1603462569.703125,-14.44
1603462569.71875,-15.20
1603462569.734375,-15.26
1603462569.75,-14.94
1603462569.765625,-14.72
1603462569.78125,-14.98
1603462569.796875,-16.01
1603462569.8125,-17.97
1603462569.828125,-20.89
1603462569.84375,-24.45
1603462569.859375,-27.80
1603462569.875,-29.52
1603462569.890625,-27.99
1603462569.90625,-22.09
1603462569.921875,-11.94
1603462569.9375,0.92
1603462569.953125,13.93
1603462569.96875,24.55
1603462569.984375,31.22
1603462570.0,33.84
1603462570.015625,33.50
1603462570.03125,31.64
1603462570.046875,29.34
1603462570.0625,26.97
1603462570.078125,24.45
1603462570.09375,21.72
1603462570.109375,19.03
1603462570.125,16.91
1603462570.140625,15.78
1603462570.15625,15.60
1603462570.171875,15.85
1603462570.1875,15.74
1603462570.203125,14.62
1603462570.21875,12.29
1603462570.234375,9.21
1603462570.25,6.26
1603462570.265625,4.44
1603462570.28125,4.45
1603462570.296875,6.45
1603462570.3125,10.02
1603462570.328125,14.24
1603462570.34375,18.10
1603462570.359375,20.80
1603462570.375,21.94
1603462570.390625,21.58
1603462570.40625,20.09
1603462570.421875,17.96
1603462570.4375,15.59
1603462570.453125,13.28
1603462570.46875,11.14
1603462570.484375,9.23
1603462570.5,7.64
1603462570.515625,6.54
1603462570.53125,6.16
1603462570.546875,6.71
1603462570.5625,8.25
1603462570.578125,10.57
1603462570.59375,13.25
1603462570.609375,15.79
1603462570.625,17.67
1603462570.640625,18.61
1603462570.65625,18.47
1603462570.671875,17.25
1603462570.6875,15.06
1603462570.703125,12.07
1603462570.71875,8.34
1603462570.734375,4.06
1603462570.75,-0.45
1603462570.765625,-4.83
1603462570.78125,-8.78
1603462570.796875,-12.14
1603462570.8125,-14.85
1603462570.828125,-16.99
1603462570.84375,-18.63
1603462570.859375,-19.82
1603462570.875,-20.56
1603462570.890625,-20.85
1603462570.90625,-20.68
1603462570.921875,-20.12
1603462570.9375,-19.21
1603462570.953125,-18.08
1603462570.96875,-16.84
1603462570.984375,-15.63
1603462571.0,-14.66
1603462571.015625,-14.07
1603462571.03125,-13.94
1603462571.046875,-14.18
1603462571.0625,-14.48
1603462571.078125,-14.37
1603462571.09375,-13.31
1603462571.109375,-10.94
1603462571.125,-7.23
1603462571.140625,-2.51
1603462571.15625,2.53
1603462571.171875,7.07
1603462571.1875,10.41
1603462571.203125,12.13
1603462571.21875,12.19
1603462571.234375,10.88
1603462571.25,8.67
1603462571.265625,6.03
1603462571.28125,3.30
1603462571.296875,0.71
1603462571.3125,-1.59
1603462571.328125,-3.43
1603462571.34375,-4.63
1603462571.359375,-5.03
1603462571.375,-4.55
1603462571.390625,-3.31
1603462571.40625,-1.58
1603462571.421875,0.28
1603462571.4375,1.95
1603462571.453125,3.29
1603462571.46875,4.34
1603462571.484375,5.19
1603462571.5,5.84
1603462571.515625,6.21
1603462571.53125,6.11
1603462571.546875,5.41
1603462571.5625,4.12
1603462571.578125,2.40
1603462571.59375,0.54
1603462571.609375,-1.17
1603462571.625,-2.53
1603462571.640625,-3.50
1603462571.65625,-4.20
1603462571.671875,-4.85
1603462571.6875,-5.69
1603462571.703125,-6.69
1603462571.71875,-7.84
1603462571.734375,-9.11
1603462571.75,-10.42
1603462571.765625,-11.71
1603462571.78125,-12.93
1603462571.796875,-14.10
1603462571.8125,-15.30
1603462571.828125,-16.68
1603462571.84375,-18.39
1603462571.859375,-20.57
1603462571.875,-23.21
1603462571.890625,-26.05
1603462571.90625,-28.57
1603462571.921875,-30.01
1603462571.9375,-29.58
1603462571.953125,-26.65
1603462571.96875,-21.00
1603462571.984375,-12.92
1603462572.0,-3.20
1603462572.015625,7.05
1603462572.03125,16.69
1603462572.046875,24.76
1603462572.0625,30.66
1603462572.078125,34.19
1603462572.09375,35.45
1603462572.109375,34.74
1603462572.125,32.45
1603462572.140625,28.93
1603462572.15625,24.61
1603462572.171875,19.95
1603462572.1875,15.49
1603462572.203125,11.82
1603462572.21875,9.37
1603462572.234375,8.36
1603462572.25,8.67
1603462572.265625,9.91
1603462572.28125,11.57
1603462572.296875,13.25
1603462572.3125,14.70
1603462572.328125,15.83
1603462572.34375,16.59
1603462572.359375,16.88
1603462572.375,16.53
1603462572.390625,15.40
1603462572.40625,13.49
1603462572.421875,10.97
1603462572.4375,8.15
1603462572.453125,5.37
1603462572.46875,2.86
1603462572.484375,0.71
1603462572.5,-1.17
1603462572.515625,-2.97
1603462572.53125,-4.87
1603462572.546875,-7.00
1603462572.5625,-9.35
1603462572.578125,-11.79
1603462572.59375,-14.09
1603462572.609375,-16.05
1603462572.625,-17.61
1603462572.640625,-18.94
1603462572.65625,-20.34
1603462572.671875,-22.19
1603462572.6875,-24.66
1603462572.703125,-27.68
1603462572.71875,-30.89
1603462572.734375,-33.73
1603462572.75,-35.54
1603462572.765625,-35.72
1603462572.78125,-33.81
1603462572.796875,-29.59
1603462572.8125,-23.13
1603462572.828125,-14.85
1603462572.84375,-5.50
1603462572.859375,3.96
1603462572.875,12.55
1603462572.890625,19.54
1603462572.90625,24.53
1603462572.921875,27.45
1603462572.9375,28.46
1603462572.953125,27.81
1603462572.96875,25.78
1603462572.984375,22.68
1603462573.0,18.87
1603462573.015625,14.86
1603462573.03125,11.20
1603462573.046875,8.39
1603462573.0625,6.78
1603462573.078125,6.47
1603462573.09375,7.28
1603462573.109375,8.88
1603462573.125,10.87
1603462573.140625,12.90
1603462573.15625,14.69
1603462573.171875,15.99
1603462573.1875,16.61
1603462573.203125,16.39
1603462573.21875,15.28
1603462573.234375,13.39
1603462573.25,10.92
1603462573.265625,8.19
1603462573.28125,5.51
1603462573.296875,3.06
1603462573.3125,0.93
1603462573.328125,-0.97
1603462573.34375,-2.76
1603462573.359375,-4.55
1603462573.375,-6.41
1603462573.390625,-8.30
1603462573.40625,-10.15
1603462573.421875,-11.86
1603462573.4375,-13.40
1603462573.453125,-14.83
1603462573.46875,-16.31
1603462573.484375,-18.09
1603462573.5,-20.39
1603462573.515625,-23.35
1603462573.53125,-26.88
1603462573.546875,-30.57
1603462573.5625,-33.76
1603462573.578125,-35.60
1603462573.59375,-35.34
1603462573.609375,-32.49
1603462573.625,-27.05
1603462573.640625,-19.48
1603462573.65625,-10.60
1603462573.671875,-1.37
1603462573.6875,7.34
1603462573.703125,14.85
1603462573.71875,20.70
1603462573.734375,24.60
1603462573.75,26.44
1603462573.765625,26.28
1603462573.78125,24.37
1603462573.796875,21.15
1603462573.8125,17.25
1603462573.828125,13.35
1603462573.84375,10.07
1603462573.859375,7.83
1603462573.875,6.83
1603462573.890625,6.97
1603462573.90625,8.01
1603462573.921875,9.60
1603462573.9375,11.44
1603462573.953125,13.30
1603462573.96875,15.02
1603462573.984375,16.47
1603462574.0,17.46
1603462574.015625,17.76
1603462574.03125,17.16
1603462574.046875,15.61
1603462574.0625,13.22
1603462574.078125,10.32
1603462574.09375,7.28
1603462574.109375,4.47
1603462574.125,2.05
1603462574.140625,-0.00
1603462574.15625,-1.88
1603462574.171875,-3.81
1603462574.1875,-5.95
1603462574.203125,-8.32
1603462574.21875,-10.85
1603462574.234375,-13.41
1603462574.25,-15.89
1603462574.265625,-18.27
1603462574.28125,-20.51
1603462574.296875,-22.63
1603462574.3125,-24.68
1603462574.328125,-26.77
1603462574.34375,-29.13
1603462574.359375,-32.01
1603462574.375,-35.52
1603462574.390625,-39.44
1603462574.40625,-43.07
1603462574.421875,-45.36
1603462574.4375,-45.18
1603462574.453125,-41.79
1603462574.46875,-35.10
1603462574.484375,-25.78
1603462574.5,-14.98
1603462574.515625,-3.99
1603462574.53125,6.11
1603462574.546875,14.64
1603462574.5625,21.33
1603462574.578125,26.09
1603462574.59375,28.96
1603462574.609375,30.02
1603462574.625,29.43
1603462574.640625,27.49
1603462574.65625,24.61
1603462574.671875,21.36
1603462574.6875,18.28
1603462574.703125,15.81
1603462574.71875,14.23
1603462574.734375,13.61
1603462574.75,13.84
1603462574.765625,14.70
1603462574.78125,15.93
1603462574.796875,17.27
1603462574.8125,18.58
1603462574.828125,19.75
1603462574.84375,20.66
1603462574.859375,21.15
1603462574.875,21.02
1603462574.890625,20.12
1603462574.90625,18.38
1603462574.921875,15.93
1603462574.9375,13.00
1603462574.953125,9.90
1603462574.96875,6.90
1603462574.984375,4.14
1603462575.0,1.68
1603462575.015625,-0.48
1603462575.03125,-2.44
1603462575.046875,-4.32
1603462575.0625,-6.26
1603462575.078125,-8.38
1603462575.09375,-10.76
1603462575.109375,-13.36
1603462575.125,-16.04
1603462575.140625,-18.64
1603462575.15625,-21.00
1603462575.171875,-23.10
1603462575.1875,-25.06
1603462575.203125,-27.19
1603462575.21875,-29.78
1603462575.234375,-33.04
1603462575.25,-36.91
1603462575.265625,-40.92
1603462575.28125,-44.27
1603462575.296875,-45.98
1603462575.3125,-45.15
1603462575.328125,-41.31
1603462575.34375,-34.54
1603462575.359375,-25.46
1603462575.375,-15.13
1603462575.390625,-4.70
1603462575.40625,4.82
1603462575.421875,12.73
1603462575.4375,18.70
1603462575.453125,22.67
1603462575.46875,24.70
1603462575.484375,24.94
1603462575.5,23.62
1603462575.515625,21.13
1603462575.53125,17.99
1603462575.546875,14.86
1603462575.5625,12.37
1603462575.578125,10.92
1603462575.59375,10.65
1603462575.609375,11.37
1603462575.625,12.74
1603462575.640625,14.40
1603462575.65625,16.12
1603462575.671875,17.79
1603462575.6875,19.36
1603462575.703125,20.77
1603462575.71875,21.81
1603462575.734375,22.21
1603462575.75,21.66
1603462575.765625,20.02
1603462575.78125,17.38
1603462575.796875,14.11
1603462575.8125,10.74
1603462575.828125,7.76
1603462575.84375,5.42
1603462575.859375,3.66
1603462575.875,2.15
1603462575.890625,0.48
1603462575.90625,-1.69
1603462575.921875,-4.42
1603462575.9375,-7.56
1603462575.953125,-10.81
1603462575.96875,-13.83
1603462575.984375,-16.40
1603462576.0,-18.45
1603462576.015625,-20.08
1603462576.03125,-21.54
1603462576.046875,-23.18
1603462576.0625,-25.40
1603462576.078125,-28.51
1603462576.09375,-32.56
1603462576.109375,-37.25
1603462576.125,-41.82
1603462576.140625,-45.20
1603462576.15625,-46.29
1603462576.171875,-44.28
1603462576.1875,-38.96
1603462576.203125,-30.75
1603462576.21875,-20.63
1603462576.234375,-9.80
1603462576.25,0.60
1603462576.265625,9.72
1603462576.28125,17.05
1603462576.296875,22.38
1603462576.3125,25.72
1603462576.328125,27.19
1603462576.34375,27.05
1603462576.359375,25.62
1603462576.375,23.37
1603462576.390625,20.75
1603462576.40625,18.25
1603462576.421875,16.25
1603462576.4375,15.03
1603462576.453125,14.71
1603462576.46875,15.25
1603462576.484375,16.48
1603462576.5,18.12
1603462576.515625,19.91
1603462576.53125,21.64
1603462576.546875,23.16
1603462576.5625,24.36
1603462576.578125,25.17
1603462576.59375,25.46
1603462576.609375,25.12
1603462576.625,24.04
1603462576.640625,22.22
1603462576.65625,19.73
1603462576.671875,16.73
1603462576.6875,13.40
1603462576.703125,9.94
1603462576.71875,6.58
1603462576.734375,3.47
1603462576.75,0.75
1603462576.765625,-1.59
1603462576.78125,-3.65
1603462576.796875,-5.63
1603462576.8125,-7.71
1603462576.828125,-9.96
1603462576.84375,-12.27
1603462576.859375,-14.39
1603462576.875,-16.17
1603462576.890625,-17.57
1603462576.90625,-18.84
1603462576.921875,-20.36
1603462576.9375,-22.52
1603462576.953125,-25.57
1603462576.96875,-29.45
1603462576.984375,-33.79
1603462577.0,-37.91
1603462577.015625,-40.92
1603462577.03125,-41.87
1603462577.046875,-40.00
1603462577.0625,-34.98
1603462577.078125,-27.02
1603462577.09375,-16.94
1603462577.109375,-5.98
1603462577.125,4.58
1603462577.140625,13.65
1603462577.15625,20.64
1603462577.171875,25.44
1603462577.1875,28.26
1603462577.203125,29.43
1603462577.21875,29.25
1603462577.234375,27.94
1603462577.25,25.76
1603462577.265625,23.03
1603462577.28125,20.24
1603462577.296875,17.85
1603462577.3125,16.27
1603462577.328125,15.65
1603462577.34375,15.92
1603462577.359375,16.84
1603462577.375,18.13
1603462577.390625,19.55
1603462577.40625,20.94
1603462577.421875,22.17
1603462577.4375,23.11
1603462577.453125,23.62
1603462577.46875,23.56
1603462577.484375,22.90
1603462577.5,21.67
1603462577.515625,19.97
1603462577.53125,17.85
1603462577.546875,15.40
1603462577.5625,12.67
1603462577.578125,9.81
1603462577.59375,7.01
1603462577.609375,4.48
1603462577.625,2.38
1603462577.640625,0.70
1603462577.65625,-0.71
1603462577.671875,-2.06
1603462577.6875,-3.56
1603462577.703125,-5.31
1603462577.71875,-7.30
1603462577.734375,-9.43
1603462577.75,-11.60
1603462577.765625,-13.70
1603462577.78125,-15.64
1603462577.796875,-17.38
1603462577.8125,-18.98
1603462577.828125,-20.56
1603462577.84375,-22.41
1603462577.859375,-24.82
1603462577.875,-28.00
1603462577.890625,-31.92
1603462577.90625,-36.22
1603462577.921875,-40.16
1603462577.9375,-42.79
1603462577.953125,-43.17
1603462577.96875,-40.62
1603462577.984375,-34.95
1603462578.0,-26.57
1603462578.015625,-16.40
1603462578.03125,-5.65
1603462578.046875,4.48
1603462578.0625,13.07
1603462578.078125,19.61
1603462578.09375,23.94
1603462578.109375,26.18
1603462578.125,26.59
1603462578.140625,25.49
1603462578.15625,23.26
1603462578.171875,20.30
1603462578.1875,17.10
1603462578.203125,14.15
1603462578.21875,11.84
1603462578.234375,10.47
1603462578.25,10.12
1603462578.265625,10.72
1603462578.28125,12.04
1603462578.296875,13.80
1603462578.3125,15.76
1603462578.328125,17.71
1603462578.34375,19.50
1603462578.359375,20.98
1603462578.375,21.96
1603462578.390625,22.26
1603462578.40625,21.74
1603462578.421875,20.40
1603462578.4375,18.40
1603462578.453125,16.03
1603462578.46875,13.57
1603462578.484375,11.22
1603462578.5,9.03
1603462578.515625,6.97
1603462578.53125,4.98
1603462578.546875,3.04
1603462578.5625,1.19
1603462578.578125,-0.58
1603462578.59375,-2.26
1603462578.609375,-3.91
1603462578.625,-5.63
1603462578.640625,-7.46
1603462578.65625,-9.41
1603462578.671875,-11.41
1603462578.6875,-13.40
1603462578.703125,-15.29
1603462578.71875,-17.10
1603462578.734375,-18.88
1603462578.75,-20.75
1603462578.765625,-22.89
1603462578.78125,-25.48
1603462578.796875,-28.64
1603462578.8125,-32.33
1603462578.828125,-36.22
1603462578.84375,-39.67
1603462578.859375,-41.81
1603462578.875,-41.73
1603462578.890625,-38.81
1603462578.90625,-32.95
1603462578.921875,-24.64
1603462578.9375,-14.89
1603462578.953125,-4.90
1603462578.96875,4.26
1603462578.984375,11.86
1603462579.0,17.61
1603462579.015625,21.57
1603462579.03125,23.93
1603462579.046875,24.90
1603462579.0625,24.62
1603462579.078125,23.24
1603462579.09375,20.94
1603462579.109375,18.05
1603462579.125,14.99
1603462579.140625,12.25
1603462579.15625,10.29
1603462579.171875,9.37
1603462579.1875,9.57
1603462579.203125,10.77
1603462579.21875,12.68
1603462579.234375,14.94
1603462579.25,17.20
1603462579.265625,19.07
1603462579.28125,20.32
1603462579.296875,20.78
1603462579.3125,20.44
1603462579.328125,19.38
1603462579.34375,17.72
1603462579.359375,15.63
1603462579.375,13.25
1603462579.390625,10.78
1603462579.40625,8.40
1603462579.421875,6.27
1603462579.4375,4.44
1603462579.453125,2.85
1603462579.46875,1.32
1603462579.484375,-0.36
1603462579.5,-2.32
1603462579.515625,-4.60
1603462579.53125,-7.05
1603462579.546875,-9.52
1603462579.5625,-11.81
1603462579.578125,-13.83
1603462579.59375,-15.54
1603462579.609375,-16.98
1603462579.625,-18.28
1603462579.640625,-19.67
1603462579.65625,-21.42
1603462579.671875,-23.81
1603462579.6875,-27.00
1603462579.703125,-30.91
1603462579.71875,-35.20
1603462579.734375,-39.22
1603462579.75,-42.17
1603462579.765625,-43.22
1603462579.78125,-41.74
1603462579.796875,-37.45
1603462579.8125,-30.57
1603462579.828125,-21.72
1603462579.84375,-11.83
1603462579.859375,-1.92
1603462579.875,7.14
1603462579.890625,14.72
1603462579.90625,20.50
1603462579.921875,24.37
1603462579.9375,26.41
1603462579.953125,26.75
1603462579.96875,25.67
1603462579.984375,23.47
1603462580.0,20.62
1603462580.015625,17.60
1603462580.03125,14.91
1603462580.046875,12.94
1603462580.0625,11.93
1603462580.078125,11.94
1603462580.09375,12.85
1603462580.109375,14.45
1603462580.125,16.47
1603462580.140625,18.64
1603462580.15625,20.71
1603462580.171875,22.45
1603462580.1875,23.66
1603462580.203125,24.18
1603462580.21875,23.99
1603462580.234375,23.13
1603462580.25,21.75
1603462580.265625,20.02
1603462580.28125,18.16
1603462580.296875,16.37
1603462580.3125,14.78
1603462580.328125,13.50
1603462580.34375,12.53
1603462580.359375,11.85
1603462580.375,11.30
1603462580.390625,10.74
1603462580.40625,10.04
1603462580.421875,9.15
1603462580.4375,8.14
1603462580.453125,7.15
1603462580.46875,6.33
1603462580.484375,5.77
1603462580.5,5.46
1603462580.515625,5.30
1603462580.53125,5.17
1603462580.546875,4.94
1603462580.5625,4.53
1603462580.578125,3.94
1603462580.59375,3.19
1603462580.609375,2.34
1603462580.625,1.40
1603462580.640625,0.41
1603462580.65625,-0.60
1603462580.671875,-1.60
1603462580.6875,-2.58
1603462580.703125,-3.59
1603462580.71875,-4.73
1603462580.734375,-6.11
1603462580.75,-7.78
1603462580.765625,-9.65
1603462580.78125,-11.52
1603462580.796875,-13.21
1603462580.8125,-14.63
1603462580.828125,-15.85
1603462580.84375,-17.10
1603462580.859375,-18.64
1603462580.875,-20.63
1603462580.890625,-23.05
1603462580.90625,-25.73
1603462580.921875,-28.43
1603462580.9375,-30.94
1603462580.953125,-33.16
1603462580.96875,-35.10
1603462580.984375,-36.89
1603462581.0,-38.75
1603462581.015625,-40.96
1603462581.03125,-43.76
1603462581.046875,-47.30
1603462581.0625,-51.45
1603462581.078125,-55.69
1603462581.09375,-59.14
1603462581.109375,-60.73
1603462581.125,-59.54
1603462581.140625,-55.05
1603462581.15625,-47.39
1603462581.171875,-37.25
1603462581.1875,-25.74
1603462581.203125,-14.05
1603462581.21875,-3.22
1603462581.234375,5.97
1603462581.25,13.09
1603462581.265625,17.98
1603462581.28125,20.70
1603462581.296875,21.48
1603462581.3125,20.69
1603462581.328125,18.75
1603462581.34375,16.14
1603462581.359375,13.30
1603462581.375,10.64
1603462581.390625,8.51
1603462581.40625,7.15
1603462581.421875,6.67
1603462581.4375,7.04
1603462581.453125,8.13
1603462581.46875,9.76
1603462581.484375,11.81
1603462581.5,14.17
1603462581.515625,16.71
1603462581.53125,19.23
1603462581.546875,21.42
1603462581.5625,22.89
1603462581.578125,23.28
1603462581.59375,22.38
1603462581.609375,20.26
1603462581.625,17.22
1603462581.640625,13.72
1603462581.65625,10.23
1603462581.671875,7.14
1603462581.6875,4.65
1603462581.703125,2.77
1603462581.71875,1.35
1603462581.734375,0.16
1603462581.75,-1.05
1603462581.765625,-2.49
1603462581.78125,-4.21
1603462581.796875,-6.19
1603462581.8125,-8.36
1603462581.828125,-10.59
1603462581.84375,-12.82
1603462581.859375,-15.06
1603462581.875,-17.37
1603462581.890625,-19.87
1603462581.90625,-22.70
1603462581.921875,-25.95
1603462581.9375,-29.55
1603462581.953125,-33.21
1603462581.96875,-36.37
1603462581.984375,-38.26
1603462582.0,-38.08
1603462582.015625,-35.29
1603462582.03125,-29.80
1603462582.046875,-22.11
1603462582.0625,-13.14
1603462582.078125,-3.95
1603462582.09375,4.53
1603462582.109375,11.74
1603462582.125,17.42
1603462582.140625,21.55
1603462582.15625,24.16
1603462582.171875,25.31
1603462582.1875,25.05
1603462582.203125,23.55
1603462582.21875,21.10
1603462582.234375,18.11
1603462582.25,15.04
1603462582.265625,12.33
1603462582.28125,10.38
1603462582.296875,9.44
1603462582.3125,9.66
1603462582.328125,10.94
1603462582.34375,13.03
1603462582.359375,15.47
1603462582.375,17.77
1603462582.390625,19.54
1603462582.40625,20.52
1603462582.421875,20.69
1603462582.4375,20.15
1603462582.453125,19.05
1603462582.46875,17.56
1603462582.484375,15.79
1603462582.5,13.78
1603462582.515625,11.57
1603462582.53125,9.17
1603462582.546875,6.61
1603462582.5625,3.88
1603462582.578125,1.02
1603462582.59375,-1.95
1603462582.609375,-4.95
1603462582.625,-7.89
1603462582.640625,-10.66
1603462582.65625,-13.22
1603462582.671875,-15.60
1603462582.6875,-17.99
1603462582.703125,-20.64
1603462582.71875,-23.82
1603462582.734375,-27.66
1603462582.75,-32.00
1603462582.765625,-36.33
1603462582.78125,-39.85
1603462582.796875,-41.69
1603462582.8125,-41.13
1603462582.828125,-37.89
1603462582.84375,-32.14
1603462582.859375,-24.55
1603462582.875,-16.04
1603462582.890625,-7.51
1603462582.90625,0.30
1603462582.921875,6.92
1603462582.9375,12.12
1603462582.953125,15.82
1603462582.96875,17.96
1603462582.984375,18.49
1603462583.0,17.47
1603462583.015625,15.10
1603462583.03125,11.80
1603462583.046875,8.22
1603462583.0625,5.02
1603462583.078125,2.82
1603462583.09375,1.98
1603462583.109375,2.58
1603462583.125,4.45
1603462583.140625,7.20
1603462583.15625,10.33
1603462583.171875,13.29
1603462583.1875,15.61
1603462583.203125,16.94
1603462583.21875,17.20
1603462583.234375,16.48
1603462583.25,15.08
1603462583.265625,13.28
1603462583.28125,11.28
1603462583.296875,9.15
1603462583.3125,6.81
1603462583.328125,4.21
1603462583.34375,1.43
1603462583.359375,-1.34
1603462583.375,-3.82
1603462583.390625,-5.87
1603462583.40625,-7.48
1603462583.421875,-8.88
1603462583.4375,-10.41
1603462583.453125,-12.38
1603462583.46875,-14.96
1603462583.484375,-18.16
1603462583.5,-21.80
1603462583.515625,-25.64
1603462583.53125,-29.31
1603462583.546875,-32.34
1603462583.5625,-34.17
1603462583.578125,-34.16
1603462583.59375,-31.75
1603462583.609375,-26.71
1603462583.625,-19.26
1603462583.640625,-10.10
1603462583.65625,-0.30
1603462583.671875,8.99
1603462583.6875,16.87
1603462583.703125,22.85
1603462583.71875,26.86
1603462583.734375,29.09
1603462583.75,29.77
1603462583.765625,29.08
1603462583.78125,27.14
1603462583.796875,24.10
1603462583.8125,20.31
1603462583.828125,16.36
1603462583.84375,12.99
1603462583.859375,10.86
1603462583.875,10.37
1603462583.890625,11.50
1603462583.90625,13.87
1603462583.921875,16.85
1603462583.9375,19.81
1603462583.953125,22.19
1603462583.96875,23.65
1603462583.984375,24.02
1603462584.0,23.28
1603462584.015625,21.57
1603462584.03125,19.11
1603462584.046875,16.21
1603462584.0625,13.17
1603462584.078125,10.18
1603462584.09375,7.33
1603462584.109375,4.58
1603462584.125,1.87
1603462584.140625,-0.80
1603462584.15625,-3.33
1603462584.171875,-5.60
1603462584.1875,-7.52
1603462584.203125,-9.18
1603462584.21875,-10.78
1603462584.234375,-12.64
1603462584.25,-15.11
1603462584.265625,-18.39
1603462584.28125,-22.53
1603462584.296875,-27.30
1603462584.3125,-32.18
1603462584.328125,-36.30
1603462584.34375,-38.66
1603462584.359375,-38.31
1603462584.375,-34.66
1603462584.390625,-27.75
1603462584.40625,-18.28
1603462584.421875,-7.44
1603462584.4375,3.39
1603462584.453125,13.05
1603462584.46875,20.82
1603462584.484375,26.42
1603462584.5,29.94
1603462584.515625,31.61
1603462584.53125,31.70
1603462584.546875,30.42
1603462584.5625,28.05
1603462584.578125,24.97
1603462584.59375,21.68
1603462584.609375,18.77
1603462584.625,16.77
1603462584.640625,16.00
1603462584.65625,16.52
1603462584.671875,18.12
1603462584.6875,20.41
1603462584.703125,22.95
1603462584.71875,25.30
1603462584.734375,27.12
1603462584.75,28.14
1603462584.765625,28.20
1603462584.78125,27.28
1603462584.796875,25.47
1603462584.8125,23.01
1603462584.828125,20.20
1603462584.84375,17.30
1603462584.859375,14.47
1603462584.875,11.72
1603462584.890625,8.98
1603462584.90625,6.14
1603462584.921875,3.18
1603462584.9375,0.20
1603462584.953125,-2.59
1603462584.96875,-5.01
1603462584.984375,-7.00
1603462585.0,-8.68
1603462585.015625,-10.31
1603462585.03125,-12.19
1603462585.046875,-14.58
1603462585.0625,-17.61
1603462585.078125,-21.25
1603462585.09375,-25.32
1603462585.109375,-29.48
1603462585.125,-33.13
1603462585.140625,-35.52
1603462585.15625,-35.82
1603462585.171875,-33.36
1603462585.1875,-27.94
1603462585.203125,-19.96
1603462585.21875,-10.37
1603462585.234375,-0.42
1603462585.25,8.71
1603462585.265625,16.20
1603462585.28125,21.71
1603462585.296875,25.26
1603462585.3125,27.11
1603462585.328125,27.47
1603462585.34375,26.51
1603462585.359375,24.36
1603462585.375,21.29
1603462585.390625,17.76
1603462585.40625,14.40
1603462585.421875,11.90
1603462585.4375,10.76
1603462585.453125,11.11
1603462585.46875,12.74
1603462585.484375,15.14
1603462585.5,17.74
1603462585.515625,20.06
1603462585.53125,21.83
1603462585.546875,22.95
1603462585.5625,23.41
1603462585.578125,23.21
1603462585.59375,22.34
1603462585.609375,20.79
1603462585.625,18.62
1603462585.640625,16.00
1603462585.65625,13.13
1603462585.671875,10.30
1603462585.6875,7.75
1603462585.703125,5.60
1603462585.71875,3.81
1603462585.734375,2.21
1603462585.75,0.60
1603462585.765625,-1.16
1603462585.78125,-3.11
1603462585.796875,-5.15
1603462585.8125,-7.16
1603462585.828125,-9.09
1603462585.84375,-10.95
1603462585.859375,-12.89
1603462585.875,-15.09
1603462585.890625,-17.72
1603462585.90625,-20.85
1603462585.921875,-24.43
1603462585.9375,-28.21
1603462585.953125,-31.67
1603462585.96875,-34.11
1603462585.984375,-34.75
1603462586.0,-32.94
1603462586.015625,-28.42
1603462586.03125,-21.43
1603462586.046875,-12.71
1603462586.0625,-3.28
1603462586.078125,5.77
1603462586.09375,13.54
1603462586.109375,19.48
1603462586.125,23.42
1603462586.140625,25.50
1603462586.15625,26.02
1603462586.171875,25.34
1603462586.1875,23.77
1603462586.203125,21.58
1603462586.21875,19.06
1603462586.234375,16.49
1603462586.25,14.25
1603462586.265625,12.69
1603462586.28125,12.05
1603462586.296875,12.38
1603462586.3125,13.53
1603462586.328125,15.21
1603462586.34375,17.09
1603462586.359375,18.84
1603462586.375,20.22
1603462586.390625,21.02
1603462586.40625,21.07
1603462586.421875,20.29
1603462586.4375,18.75
1603462586.453125,16.62
1603462586.46875,14.17
1603462586.484375,11.66
1603462586.5,9.26
1603462586.515625,7.02
1603462586.53125,4.95
1603462586.546875,3.05
1603462586.5625,1.33
1603462586.578125,-0.17
1603462586.59375,-1.45
1603462586.609375,-2.61
1603462586.625,-3.83
1603462586.640625,-5.28
1603462586.65625,-7.09
1603462586.671875,-9.24
1603462586.6875,-11.59
1603462586.703125,-13.92
1603462586.71875,-15.99
1603462586.734375,-17.70
1603462586.75,-19.07
1603462586.765625,-20.27
1603462586.78125,-21.57
1603462586.796875,-23.23
1603462586.8125,-25.44
1603462586.828125,-28.23
1603462586.84375,-31.38
1603462586.859375,-34.47
1603462586.875,-36.87
1603462586.890625,-37.88
1603462586.90625,-36.83
1603462586.921875,-33.33
1603462586.9375,-27.35
1603462586.953125,-19.35
1603462586.96875,-10.15
1603462586.984375,-0.78
1603462587.0,7.80
1603462587.015625,14.86
1603462587.03125,20.04
1603462587.046875,23.26
1603462587.0625,24.65
1603462587.078125,24.45
1603462587.09375,22.95
1603462587.109375,20.51
1603462587.125,17.58
1603462587.140625,14.62
1603462587.15625,12.09
1603462587.171875,10.35
1603462587.1875,9.53
1603462587.203125,9.57
1603462587.21875,10.27
1603462587.234375,11.35
1603462587.25,12.60
1603462587.265625,13.90
1603462587.28125,15.20
1603462587.296875,16.41
1603462587.3125,17.40
1603462587.328125,17.91
1603462587.34375,17.72
1603462587.359375,16.69
1603462587.375,14.89
1603462587.390625,12.58
1603462587.40625,10.08
1603462587.421875,7.69
1603462587.4375,5.52
1603462587.453125,3.54
1603462587.46875,1.70
1603462587.484375,-0.06
1603462587.5,-1.70
1603462587.515625,-3.18
1603462587.53125,-4.53
1603462587.546875,-5.87
1603462587.5625,-7.37
1603462587.578125,-9.17
1603462587.59375,-11.25
1603462587.609375,-13.48
1603462587.625,-15.64
1603462587.640625,-17.55
1603462587.65625,-19.13
1603462587.671875,-20.42
1603462587.6875,-21.53
1603462587.703125,-22.59
1603462587.71875,-23.79
1603462587.734375,-25.33
1603462587.75,-27.40
1603462587.765625,-30.10
1603462587.78125,-33.29
1603462587.796875,-36.58
1603462587.8125,-39.32
1603462587.828125,-40.74
1603462587.84375,-40.16
1603462587.859375,-37.20
1603462587.875,-31.87
1603462587.890625,-24.61
1603462587.90625,-16.18
1603462587.921875,-7.51
1603462587.9375,0.54
1603462587.953125,7.34
1603462587.96875,12.49
1603462587.984375,15.89
1603462588.0,17.61
1603462588.015625,17.83
1603462588.03125,16.78
1603462588.046875,14.67
1603462588.0625,11.82
1603462588.078125,8.64
1603462588.09375,5.65
1603462588.109375,3.38
1603462588.125,2.22
1603462588.140625,2.32
1603462588.15625,3.53
1603462588.171875,5.51
1603462588.1875,7.80
1603462588.203125,10.01
1603462588.21875,11.85
1603462588.234375,13.09
1603462588.25,13.59
1603462588.265625,13.25
1603462588.28125,12.04
1603462588.296875,10.07
1603462588.3125,7.62
1603462588.328125,5.09
1603462588.34375,2.85
1603462588.359375,1.15
1603462588.375,-0.01
1603462588.390625,-0.81
1603462588.40625,-1.52
1603462588.421875,-2.37
1603462588.4375,-3.48
1603462588.453125,-4.84
1603462588.46875,-6.38
1603462588.484375,-7.99
1603462588.5,-9.58
1603462588.515625,-11.12
1603462588.53125,-12.62
1603462588.546875,-14.13
1603462588.5625,-15.69
1603462588.578125,-17.34
1603462588.59375,-19.07
1603462588.609375,-20.83
1603462588.625,-22.59
1603462588.640625,-24.39
1603462588.65625,-26.40
1603462588.671875,-28.82
1603462588.6875,-31.83
1603462588.703125,-35.38
1603462588.71875,-39.07
1603462588.734375,-42.21
1603462588.75,-43.94
1603462588.765625,-43.48
1603462588.78125,-40.41
1603462588.796875,-34.78
1603462588.8125,-27.17
1603462588.828125,-18.48
1603462588.84375,-9.69
1603462588.859375,-1.64
1603462588.875,5.10
1603462588.890625,10.27
1603462588.90625,13.83
1603462588.921875,15.90
1603462588.9375,16.67
1603462588.953125,16.38
1603462588.96875,15.31
1603462588.984375,13.76
1603462589.0,12.05
1603462589.015625,10.47
1603462589.03125,9.22
1603462589.046875,8.45
1603462589.0625,8.21
1603462589.078125,8.48
1603462589.09375,9.19
1603462589.109375,10.23
1603462589.125,11.45
1603462589.140625,12.70
1603462589.15625,13.82
1603462589.171875,14.69
1603462589.1875,15.17
1603462589.203125,15.18
1603462589.21875,14.65
1603462589.234375,13.57
1603462589.25,12.03
1603462589.265625,10.19
1603462589.28125,8.28
1603462589.296875,6.55
1603462589.3125,5.15
1603462589.328125,4.10
1603462589.34375,3.23
1603462589.359375,2.30
1603462589.375,1.11
1603462589.390625,-0.40
1603462589.40625,-2.09
1603462589.421875,-3.76
1603462589.4375,-5.19
1603462589.453125,-6.38
1603462589.46875,-7.47
1603462589.484375,-8.74
1603462589.5,-10.40
1603462589.515625,-12.53
1603462589.53125,-15.01
1603462589.546875,-17.61
1603462589.5625,-20.12
1603462589.578125,-22.40
1603462589.59375,-24.46
1603462589.609375,-26.42
1603462589.625,-28.51
1603462589.640625,-30.98
1603462589.65625,-34.12
1603462589.671875,-38.00
1603462589.6875,-42.39
1603462589.703125,-46.63
1603462589.71875,-49.68
1603462589.734375,-50.40
1603462589.75,-47.94
1603462589.765625,-42.06
1603462589.78125,-33.29
1603462589.796875,-22.80
1603462589.8125,-11.99
1603462589.828125,-2.08
1603462589.84375,6.17
1603462589.859375,12.51
1603462589.875,17.06
1603462589.890625,20.05
1603462589.90625,21.69
1603462589.921875,22.18
1603462589.9375,21.72
1603462589.953125,20.57
1603462589.96875,19.09
1603462589.984375,17.66
1603462590.0,16.56
1603462590.015625,15.94
1603462590.03125,15.81
1603462590.046875,16.05
1603462590.0625,16.58
1603462590.078125,17.35
1603462590.09375,18.40
1603462590.109375,19.77
1603462590.125,21.42
1603462590.140625,23.16
1603462590.15625,24.70
1603462590.171875,25.66
1603462590.1875,25.75
1603462590.203125,24.87
1603462590.21875,23.14
1603462590.234375,20.90
1603462590.25,18.55
1603462590.265625,16.39
1603462590.28125,14.56
1603462590.296875,12.98
1603462590.3125,11.45
1603462590.328125,9.75
1603462590.34375,7.78
1603462590.359375,5.58
1603462590.375,3.36
1603462590.390625,1.36
1603462590.40625,-0.26
1603462590.421875,-1.52
1603462590.4375,-2.57
1603462590.453125,-3.68
1603462590.46875,-5.08
1603462590.484375,-6.89
1603462590.5,-9.15
1603462590.515625,-11.80
1603462590.53125,-14.72
1603462590.546875,-17.74
1603462590.5625,-20.66
1603462590.578125,-23.31
1603462590.59375,-25.66
1603462590.609375,-27.84
1603462590.625,-30.22
1603462590.640625,-33.23
1603462590.65625,-37.19
1603462590.671875,-42.06
1603462590.6875,-47.30
1603462590.703125,-51.93
1603462590.71875,-54.80
1603462590.734375,-54.83
1603462590.75,-51.40
1603462590.765625,-44.50
1603462590.78125,-34.75
1603462590.796875,-23.27
1603462590.8125,-11.37
1603462590.828125,-0.24
1603462590.84375,9.31
1603462590.859375,16.86
1603462590.875,22.38
1603462590.890625,26.01
1603462590.90625,27.92
1603462590.921875,28.30
1603462590.9375,27.37
1603462590.953125,25.45
1603462590.96875,23.02
1603462590.984375,20.65
1603462591.0,18.84
1603462591.015625,17.96
1603462591.03125,18.16
1603462591.046875,19.36
1603462591.0625,21.36
1603462591.078125,23.89
1603462591.09375,26.66
1603462591.109375,29.37
1603462591.125,31.77
1603462591.140625,33.63
1603462591.15625,34.81
1603462591.171875,35.24
1603462591.1875,34.89
1603462591.203125,33.82
1603462591.21875,32.11
1603462591.234375,29.90
1603462591.25,27.36
1603462591.265625,24.66
1603462591.28125,21.97
1603462591.296875,19.37
1603462591.3125,16.97
1603462591.328125,14.78
1603462591.34375,12.81
1603462591.359375,10.99
1603462591.375,9.24
1603462591.390625,7.46
1603462591.40625,5.58
1603462591.421875,3.63
1603462591.4375,1.70
1603462591.453125,-0.13
1603462591.46875,-1.87
1603462591.484375,-3.64
1603462591.5,-5.65
1603462591.515625,-8.05
1603462591.53125,-10.88
1603462591.546875,-13.99
1603462591.5625,-17.16
1603462591.578125,-20.16
1603462591.59375,-22.90
1603462591.609375,-25.39
1603462591.625,-27.78
1603462591.640625,-30.29
1603462591.65625,-33.17
1603462591.671875,-36.67
1603462591.6875,-40.98
1603462591.703125,-46.05
1603462591.71875,-51.47
1603462591.734375,-56.39
1603462591.75,-59.66
1603462591.765625,-60.12
1603462591.78125,-56.99
1603462591.796875,-50.12
1603462591.8125,-40.06
1603462591.828125,-27.92
1603462591.84375,-15.07
1603462591.859375,-2.79
1603462591.875,7.95
1603462591.890625,16.59
1603462591.90625,22.96
1603462591.921875,27.14
1603462591.9375,29.40
1603462591.953125,30.01
1603462591.96875,29.31
1603462591.984375,27.67
1603462592.0,25.50
1603462592.015625,23.27
1603462592.03125,21.44
1603462592.046875,20.34
1603462592.0625,20.18
1603462592.078125,20.99
1603462592.09375,22.66
1603462592.109375,25.06
1603462592.125,28.01
1603462592.140625,31.27
1603462592.15625,34.53
1603462592.171875,37.38
1603462592.1875,39.42
1603462592.203125,40.35
1603462592.21875,40.03
1603462592.234375,38.61
1603462592.25,36.36
1603462592.265625,33.65
1603462592.28125,30.81
1603462592.296875,28.10
1603462592.3125,25.64
1603462592.328125,23.44
1603462592.34375,21.41
1603462592.359375,19.42
1603462592.375,17.30
1603462592.390625,14.95
1603462592.40625,12.38
1603462592.421875,9.66
1603462592.4375,6.96
1603462592.453125,4.41
1603462592.46875,2.09
1603462592.484375,-0.07
1603462592.5,-2.21
1603462592.515625,-4.53
1603462592.53125,-7.19
1603462592.546875,-10.23
1603462592.5625,-13.56
1603462592.578125,-16.93
1603462592.59375,-20.05
1603462592.609375,-22.73
1603462592.625,-24.91
1603462592.640625,-26.74
1603462592.65625,-28.58
1603462592.671875,-30.87
1603462592.6875,-34.00
1603462592.703125,-38.17
1603462592.71875,-43.24
1603462592.734375,-48.64
1603462592.75,-53.47
1603462592.765625,-56.58
1603462592.78125,-56.89
1603462592.796875,-53.65
1603462592.8125,-46.72
1603462592.828125,-36.59
1603462592.84375,-24.35
1603462592.859375,-11.34
1603462592.875,1.15
1603462592.890625,12.07
1603462592.90625,20.79
1603462592.921875,26.98
1603462592.9375,30.64
1603462592.953125,31.96
1603462592.96875,31.35
1603462592.984375,29.35
1603462593.0,26.58
1603462593.015625,23.65
1603462593.03125,21.11
1603462593.046875,19.36
1603462593.0625,18.73
1603462593.078125,19.42
1603462593.09375,21.50
1603462593.109375,24.90
1603462593.125,29.31
1603462593.140625,34.26
1603462593.15625,39.21
1603462593.171875,43.69
1603462593.1875,47.32
1603462593.203125,49.84
1603462593.21875,51.03
1603462593.234375,50.74
1603462593.25,48.92
1603462593.265625,45.75
1603462593.28125,41.71
1603462593.296875,37.41
1603462593.3125,33.45
1603462593.328125,30.16
1603462593.34375,27.49
1603462593.359375,25.14
1603462593.375,22.64
1603462593.390625,19.68
1603462593.40625,16.15
1603462593.421875,12.21
1603462593.4375,8.16
1603462593.453125,4.35
1603462593.46875,1.00
1603462593.484375,-1.83
1603462593.5,-4.29
1603462593.515625,-6.69
1603462593.53125,-9.33
1603462593.546875,-12.37
1603462593.5625,-15.74
1603462593.578125,-19.11
1603462593.59375,-22.10
1603462593.609375,-24.45
1603462593.625,-26.19
1603462593.640625,-27.65
1603462593.65625,-29.39
1603462593.671875,-31.93
1603462593.6875,-35.65
1603462593.703125,-40.63
1603462593.71875,-46.57
1603462593.734375,-52.84
1603462593.75,-58.52
1603462593.765625,-62.53
1603462593.78125,-63.88
1603462593.796875,-61.88
1603462593.8125,-56.35
1603462593.828125,-47.71
1603462593.84375,-36.89
1603462593.859375,-25.08
1603462593.875,-13.48
1603462593.890625,-3.09
1603462593.90625,5.44
1603462593.921875,11.76
1603462593.9375,15.84
1603462593.953125,17.84
1603462593.96875,18.10
1603462593.984375,17.05
1603462594.0,15.13
1603462594.015625,12.80
1603462594.03125,10.47
1603462594.046875,8.51
1603462594.0625,7.19
1603462594.078125,6.74
1603462594.09375,7.27
1603462594.109375,8.77
1603462594.125,11.11
1603462594.140625,14.08
1603462594.15625,17.44
1603462594.171875,20.93
1603462594.1875,24.33
1603462594.203125,27.40
1603462594.21875,29.91
1603462594.234375,31.63
1603462594.25,32.38
1603462594.265625,32.08
1603462594.28125,30.74
1603462594.296875,28.57
1603462594.3125,25.79
1603462594.328125,22.72
1603462594.34375,19.61
1603462594.359375,16.62
1603462594.375,13.79
1603462594.390625,11.07
1603462594.40625,8.34
1603462594.421875,5.52
1603462594.4375,2.66
1603462594.453125,-0.10
1603462594.46875,-2.53
1603462594.484375,-4.48
1603462594.5,-5.99
1603462594.515625,-7.33
1603462594.53125,-8.87
1603462594.546875,-10.93
1603462594.5625,-13.60
1603462594.578125,-16.67
1603462594.59375,-19.73
1603462594.609375,-22.42
1603462594.625,-24.58
1603462594.640625,-26.35
1603462594.65625,-28.09
1603462594.671875,-30.27
1603462594.6875,-33.26
1603462594.703125,-37.21
1603462594.71875,-41.94
1603462594.734375,-46.93
1603462594.75,-51.31
1603462594.765625,-54.02
1603462594.78125,-54.06
1603462594.796875,-50.73
1603462594.8125,-43.94
1603462594.828125,-34.22
1603462594.84375,-22.62
1603462594.859375,-10.37
1603462594.875,1.34
1603462594.890625,11.63
1603462594.90625,19.95
1603462594.921875,26.04
1603462594.9375,29.84
1603462594.953125,31.48
1603462594.96875,31.23
1603462594.984375,29.50
1603462595.0,26.81
1603462595.015625,23.65
1603462595.03125,20.48
1603462595.046875,17.65
1603462595.0625,15.43
1603462595.078125,13.99
1603462595.09375,13.43
1603462595.109375,13.79
1603462595.125,15.04
1603462595.140625,17.07
1603462595.15625,19.70
1603462595.171875,22.67
1603462595.1875,25.66
1603462595.203125,28.29
1603462595.21875,30.21
1603462595.234375,31.10
1603462595.25,30.82
1603462595.265625,29.41
1603462595.28125,27.13
1603462595.296875,24.35
1603462595.3125,21.48
1603462595.328125,18.87
1603462595.34375,16.69
1603462595.359375,14.95
1603462595.375,13.53
1603462595.390625,12.22
1603462595.40625,10.82
1603462595.421875,9.22
1603462595.4375,7.40
1603462595.453125,5.39
1603462595.46875,3.15
1603462595.484375,0.54
1603462595.5,-2.68
1603462595.515625,-6.72
1603462595.53125,-11.61
1603462595.546875,-17.11
1603462595.5625,-22.78
1603462595.578125,-28.10
1603462595.59375,-32.74
1603462595.609375,-36.59
1603462595.625,-39.79
1603462595.640625,-42.56
1603462595.65625,-45.13
1603462595.671875,-47.70
1603462595.6875,-50.46
1603462595.703125,-53.57
1603462595.71875,-57.08
1603462595.734375,-60.70
1603462595.75,-63.73
1603462595.765625,-65.10
1603462595.78125,-63.70
1603462595.796875,-58.81
1603462595.8125,-50.42
1603462595.828125,-39.25
1603462595.84375,-26.52
1603462595.859375,-13.59
1603462595.875,-1.54
1603462595.890625,8.93
1603462595.90625,17.47
1603462595.921875,24.01
1603462595.9375,28.61
1603462595.953125,31.43
1603462595.96875,32.71
1603462595.984375,32.82
1603462596.0,32.19
1603462596.015625,31.25
1603462596.03125,30.38
1603462596.046875,29.83
1603462596.0625,29.76
1603462596.078125,30.20
1603462596.09375,31.12
1603462596.109375,32.40
1603462596.125,33.86
1603462596.140625,35.31
1603462596.15625,36.57
1603462596.171875,37.49
1603462596.1875,37.93
1603462596.203125,37.76
1603462596.21875,36.81
1603462596.234375,34.98
1603462596.25,32.19
1603462596.265625,28.51
1603462596.28125,24.13
1603462596.296875,19.33
1603462596.3125,14.39
1603462596.328125,9.53
1603462596.34375,4.82
1603462596.359375,0.30
1603462596.375,-3.98
1603462596.390625,-7.91
1603462596.40625,-11.32
1603462596.421875,-14.09
1603462596.4375,-16.27
1603462596.453125,-18.07
1603462596.46875,-19.78
1603462596.484375,-21.64
1603462596.5,-23.79
1603462596.515625,-26.18
1603462596.53125,-28.71
1603462596.546875,-31.24
1603462596.5625,-33.64
1603462596.578125,-35.71
1603462596.59375,-37.28
1603462596.609375,-38.20
1603462596.625,-38.50
1603462596.640625,-38.42
1603462596.65625,-38.41
1603462596.671875,-38.95
1603462596.6875,-40.40
1603462596.703125,-42.75
1603462596.71875,-45.57
1603462596.734375,-48.07
1603462596.75,-49.22
1603462596.765625,-48.02
1603462596.78125,-43.80
1603462596.796875,-36.37
1603462596.8125,-26.19
1603462596.828125,-14.22
1603462596.84375,-1.69
1603462596.859375,10.18
1603462596.875,20.54
1603462596.890625,28.98
1603462596.90625,35.49
1603462596.921875,40.27
1603462596.9375,43.57
1603462596.953125,45.56
1603462596.96875,46.35
1603462596.984375,46.03
1603462597.0,44.74
1603462597.015625,42.68
1603462597.03125,40.05
1603462597.046875,37.05
1603462597.0625,33.86
1603462597.078125,30.64
1603462597.09375,27.64
1603462597.109375,25.12
1603462597.125,23.38
1603462597.140625,22.61
1603462597.15625,22.78
1603462597.171875,23.63
1603462597.1875,24.65
1603462597.203125,25.26
1603462597.21875,24.99
1603462597.234375,23.57
1603462597.25,21.03
1603462597.265625,17.69
1603462597.28125,14.05
1603462597.296875,10.64
1603462597.3125,7.83
1603462597.328125,5.75
1603462597.34375,4.26
1603462597.359375,3.10
1603462597.375,2.06
1603462597.390625,1.08
1603462597.40625,0.30
1603462597.421875,-0.13
1603462597.4375,-0.17
1603462597.453125,-0.00
1603462597.46875,0.01
1603462597.484375,-0.49
1603462597.5,-1.71
1603462597.515625,-3.60
1603462597.53125,-5.91
1603462597.546875,-8.33
1603462597.5625,-10.60
1603462597.578125,-12.61
1603462597.59375,-14.39
1603462597.609375,-16.13
1603462597.625,-18.08
1603462597.640625,-20.55
1603462597.65625,-23.71
1603462597.671875,-27.51
1603462597.6875,-31.51
1603462597.703125,-34.89
1603462597.71875,-36.60
1603462597.734375,-35.73
1603462597.75,-31.75
1603462597.765625,-24.75
1603462597.78125,-15.43
1603462597.796875,-4.89
1603462597.8125,5.69
1603462597.828125,15.29
1603462597.84375,23.22
1603462597.859375,29.10
1603462597.875,32.78
1603462597.890625,34.31
1603462597.90625,33.82
1603462597.921875,31.61
1603462597.9375,28.08
1603462597.953125,23.76
1603462597.96875,19.19
1603462597.984375,14.92
1603462598.0,11.39
1603462598.015625,8.93
1603462598.03125,7.71
1603462598.046875,7.71
1603462598.0625,8.75
1603462598.078125,10.47
1603462598.09375,12.50
1603462598.109375,14.45
1603462598.125,16.05
1603462598.140625,17.17
1603462598.15625,17.68
1603462598.171875,17.53
1603462598.1875,16.64
1603462598.203125,14.96
1603462598.21875,12.57
1603462598.234375,9.66
1603462598.25,6.53
1603462598.265625,3.49
1603462598.28125,0.69
1603462598.296875,-1.86
1603462598.3125,-4.29
1603462598.328125,-6.73
1603462598.34375,-9.23
1603462598.359375,-11.77
1603462598.375,-14.26
1603462598.390625,-16.63
1603462598.40625,-18.88
1603462598.421875,-21.02
1603462598.4375,-23.08
1603462598.453125,-25.02
1603462598.46875,-26.82
1603462598.484375,-28.51
1603462598.5,-30.23
1603462598.515625,-32.21
1603462598.53125,-34.76
1603462598.546875,-38.10
1603462598.5625,-42.22
1603462598.578125,-46.74
1603462598.59375,-50.89
1603462598.609375,-53.61
1603462598.625,-53.84
1603462598.640625,-50.86
1603462598.65625,-44.53
1603462598.671875,-35.36
1603462598.6875,-24.40
1603462598.703125,-12.86
1603462598.71875,-1.82
1603462598.734375,7.99
1603462598.75,16.22
1603462598.765625,22.75
1603462598.78125,27.53
1603462598.796875,30.46
1603462598.8125,31.46
1603462598.828125,30.51
1603462598.84375,27.85
1603462598.859375,24.00
1603462598.875,19.70
1603462598.890625,15.77
1603462598.90625,12.86
1603462598.921875,11.25
1603462598.9375,10.87
1603462598.953125,11.39
1603462598.96875,12.43
1603462598.984375,13.68
1603462599.0,15.05
1603462599.015625,16.56
1603462599.03125,18.19
1603462599.046875,19.82
1603462599.0625,21.13
1603462599.078125,21.78
1603462599.09375,21.45
1603462599.109375,20.02
1603462599.125,17.59
1603462599.140625,14.45
1603462599.15625,10.97
1603462599.171875,7.51
1603462599.1875,4.28
1603462599.203125,1.35
1603462599.21875,-1.42
1603462599.234375,-4.24
1603462599.25,-7.36
1603462599.265625,-10.86
1603462599.28125,-14.66
1603462599.296875,-18.49
1603462599.3125,-22.06
1603462599.328125,-25.16
1603462599.34375,-27.82
1603462599.359375,-30.31
1603462599.375,-32.98
1603462599.390625,-36.19
1603462599.40625,-40.12
1603462599.421875,-44.77
1603462599.4375,-49.85
1603462599.453125,-54.77
1603462599.46875,-58.67
1603462599.484375,-60.51
1603462599.5,-59.36
1603462599.515625,-54.69
1603462599.53125,-46.61
1603462599.546875,-35.87
1603462599.5625,-23.69
1603462599.578125,-11.36
1603462599.59375,0.04
1603462599.609375,9.85
1603462599.625,17.76
1603462599.640625,23.62
1603462599.65625,27.41
1603462599.671875,29.10
1603462599.6875,28.85
1603462599.703125,27.00
1603462599.71875,24.09
1603462599.734375,20.75
1603462599.75,17.59
1603462599.765625,15.09
1603462599.78125,13.55
1603462599.796875,13.13
1603462599.8125,13.81
1603462599.828125,15.47
1603462599.84375,17.91
1603462599.859375,20.83
1603462599.875,23.89
1603462599.890625,26.75
1603462599.90625,29.02
1603462599.921875,30.37
1603462599.9375,30.52
1603462599.953125,29.38
1603462599.96875,27.01
1603462599.984375,23.69
1603462600.0,19.84
1603462600.015625,15.88
1603462600.03125,12.13
1603462600.046875,8.69
1603462600.0625,5.53
1603462600.078125,2.44
1603462600.09375,-0.77
1603462600.109375,-4.21
1603462600.125,-7.84
1603462600.140625,-11.52
1603462600.15625,-15.08
1603462600.171875,-18.41
1603462600.1875,-21.55
1603462600.203125,-24.67
1603462600.21875,-28.01
1603462600.234375,-31.76
1603462600.25,-36.02
1603462600.265625,-40.67
1603462600.28125,-45.45
1603462600.296875,-49.83
1603462600.3125,-53.12
1603462600.328125,-54.46
1603462600.34375,-53.01
1603462600.359375,-48.25
1603462600.375,-40.20
1603462600.390625,-29.49
1603462600.40625,-17.34
1603462600.421875,-5.11
1603462600.4375,6.00
1603462600.453125,15.27
1603462600.46875,22.48
1603462600.484375,27.72
1603462600.5,31.22
1603462600.515625,33.10
1603462600.53125,33.43
1603462600.546875,32.29
1603462600.5625,29.92
1603462600.578125,26.76
1603462600.59375,23.38
1603462600.609375,20.42
1603462600.625,18.38
1603462600.640625,17.52
1603462600.65625,17.89
1603462600.671875,19.32
1603462600.6875,21.52
1603462600.703125,24.13
1603462600.71875,26.81
1603462600.734375,29.21
1603462600.75,30.96
1603462600.765625,31.76
1603462600.78125,31.35
1603462600.796875,29.69
1603462600.8125,26.91
1603462600.828125,23.37
1603462600.84375,19.52
1603462600.859375,15.75
1603462600.875,12.33
1603462600.890625,9.23
1603462600.90625,6.27
1603462600.921875,3.23
1603462600.9375,-0.07
1603462600.953125,-3.59
1603462600.96875,-7.14
1603462600.984375,-10.46
1603462601.0,-13.35
1603462601.015625,-15.83
1603462601.03125,-18.07
1603462601.046875,-20.47
1603462601.0625,-23.44
1603462601.078125,-27.28
1603462601.09375,-32.00
1603462601.109375,-37.27
1603462601.125,-42.29
1603462601.140625,-46.03
1603462601.15625,-47.37
1603462601.171875,-45.47
1603462601.1875,-39.99
1603462601.203125,-31.27
1603462601.21875,-20.24
1603462601.234375,-8.18
1603462601.25,3.63
1603462601.265625,14.18
1603462601.28125,22.89
1603462601.296875,29.57
1603462601.3125,34.27
1603462601.328125,37.15
1603462601.34375,38.32
1603462601.359375,37.87
1603462601.375,35.94
1603462601.390625,32.77
1603462601.40625,28.84
1603462601.421875,24.80
1603462601.4375,21.39
1603462601.453125,19.20
1603462601.46875,18.57
1603462601.484375,19.41
1603462601.5,21.29
1603462601.515625,23.63
1603462601.53125,25.90
1603462601.546875,27.78
1603462601.5625,29.16
1603462601.578125,29.98
1603462601.59375,30.19
1603462601.609375,29.64
1603462601.625,28.17
1603462601.640625,25.74
1603462601.65625,22.51
1603462601.671875,18.84
1603462601.6875,15.07
1603462601.703125,11.45
1603462601.71875,8.07
1603462601.734375,4.86
1603462601.75,1.77
1603462601.765625,-1.18
1603462601.78125,-3.91
1603462601.796875,-6.31
1603462601.8125,-8.38
1603462601.828125,-10.24
1603462601.84375,-12.09
1603462601.859375,-14.14
1603462601.875,-16.60
1603462601.890625,-19.63
1603462601.90625,-23.41
1603462601.921875,-28.00
1603462601.9375,-33.33
1603462601.953125,-38.93
1603462601.96875,-43.96
1603462601.984375,-47.26
1603462602.0,-47.71
1603462602.015625,-44.59
1603462602.03125,-37.91
1603462602.046875,-28.46
1603462602.0625,-17.57
1603462602.078125,-6.69
1603462602.09375,2.99
1603462602.109375,10.76
1603462602.125,16.40
1603462602.140625,19.95
1603462602.15625,21.52
1603462602.171875,21.17
1603462602.1875,18.96
1603462602.203125,15.03
1603462602.21875,9.78
1603462602.234375,3.86
1603462602.25,-1.87
1603462602.265625,-6.51
1603462602.28125,-9.33
1603462602.296875,-9.95
1603462602.3125,-8.38
1603462602.328125,-5.03
1603462602.34375,-0.58
1603462602.359375,4.17
1603462602.375,8.53
1603462602.390625,12.04
1603462602.40625,14.53
1603462602.421875,16.08
1603462602.4375,16.88
1603462602.453125,17.11
1603462602.46875,16.89
1603462602.484375,16.29
1603462602.5,15.39
1603462602.515625,14.30
1603462602.53125,13.14
1603462602.546875,12.02
1603462602.5625,10.98
1603462602.578125,10.05
1603462602.59375,9.30
1603462602.609375,8.94
1603462602.625,9.19
1603462602.640625,10.24
1603462602.65625,12.00
1603462602.671875,14.08
1603462602.6875,15.90
1603462602.703125,16.83
1603462602.71875,16.46
1603462602.734375,14.66
1603462602.75,11.47
1603462602.765625,7.06
1603462602.78125,1.62
1603462602.796875,-4.55
1603462602.8125,-10.90
1603462602.828125,-16.62
1603462602.84375,-20.68
1603462602.859375,-22.14
1603462602.875,-20.44
1603462602.890625,-15.61
1603462602.90625,-8.23
1603462602.921875,0.76
1603462602.9375,10.23
1603462602.953125,19.05
1603462602.96875,26.14
1603462602.984375,30.50
1603462603.0,31.32
1603462603.015625,28.10
1603462603.03125,20.84
1603462603.046875,10.06
1603462603.0625,-3.19
1603462603.078125,-17.51
1603462603.09375,-31.27
1603462603.109375,-42.87
1603462603.125,-50.97
1603462603.140625,-54.72
1603462603.15625,-54.01
1603462603.171875,-49.50
1603462603.1875,-42.44
1603462603.203125,-34.23
1603462603.21875,-25.98
1603462603.234375,-18.18
1603462603.25,-10.74
1603462603.265625,-3.27
1603462603.28125,4.57
1603462603.296875,12.75
1603462603.3125,20.97
1603462603.328125,28.75
1603462603.34375,35.74
1603462603.359375,41.79
1603462603.375,46.90
1603462603.390625,51.16
1603462603.40625,54.58
1603462603.421875,57.16
1603462603.4375,58.91
1603462603.453125,59.85
1603462603.46875,59.96
1603462603.484375,59.11
1603462603.5,56.99
1603462603.515625,53.19
1603462603.53125,47.34
1603462603.546875,39.37
1603462603.5625,29.56
1603462603.578125,18.51
1603462603.59375,7.01
1603462603.609375,-4.25
1603462603.625,-14.84
1603462603.640625,-24.67
1603462603.65625,-34.00
1603462603.671875,-43.28
1603462603.6875,-52.87
1603462603.703125,-62.86
1603462603.71875,-72.84
1603462603.734375,-81.88
1603462603.75,-88.77
1603462603.765625,-92.28
1603462603.78125,-91.54
1603462603.796875,-86.34
1603462603.8125,-77.19
1603462603.828125,-65.20
1603462603.84375,-51.76
1603462603.859375,-38.27
1603462603.875,-25.87
1603462603.890625,-15.33
1603462603.90625,-7.02
1603462603.921875,-0.99
1603462603.9375,2.96
1603462603.953125,5.18
1603462603.96875,6.06
1603462603.984375,6.02
1603462604.0,5.51
1603462604.015625,4.98
1603462604.03125,4.81
1603462604.046875,5.29
1603462604.0625,6.57
1603462604.078125,8.58
1603462604.09375,11.16
1603462604.109375,14.10
1603462604.125,17.22
1603462604.140625,20.35
1603462604.15625,23.33
1603462604.171875,25.91
1603462604.1875,27.75
1603462604.203125,28.51
1603462604.21875,27.89
1603462604.234375,25.85
1603462604.25,22.60
1603462604.265625,18.55
1603462604.28125,14.25
1603462604.296875,10.18
1603462604.3125,6.70
1603462604.328125,4.03
1603462604.34375,2.17
1603462604.359375,0.96
1603462604.375,0.05
1603462604.390625,-0.93
1603462604.40625,-2.35
1603462604.421875,-4.37
1603462604.4375,-6.94
1603462604.453125,-9.83
1603462604.46875,-12.72
1603462604.484375,-15.40
1603462604.5,-17.85
1603462604.515625,-20.21
1603462604.53125,-22.79
1603462604.546875,-25.86
1603462604.5625,-29.64
1603462604.578125,-34.10
1603462604.59375,-38.97
1603462604.609375,-43.67
1603462604.625,-47.37
1603462604.640625,-49.13
1603462604.65625,-48.17
1603462604.671875,-44.04
1603462604.6875,-36.85
1603462604.703125,-27.18
1603462604.71875,-16.00
1603462604.734375,-4.43
1603462604.75,6.51
1603462604.765625,16.01
1603462604.78125,23.54
1603462604.796875,28.85
1603462604.8125,31.95
1603462604.828125,33.00
1603462604.84375,32.36
1603462604.859375,30.44
1603462604.875,27.73
1603462604.890625,24.73
1603462604.90625,21.86
1603462604.921875,19.49
1603462604.9375,17.84
1603462604.953125,17.05
1603462604.96875,17.12
1603462604.984375,17.99
1603462605.0,19.54
1603462605.015625,21.55
1603462605.03125,23.73
1603462605.046875,25.69
1603462605.0625,26.97
1603462605.078125,27.20
1603462605.09375,26.19
1603462605.109375,24.01
1603462605.125,21.01
1603462605.140625,17.67
1603462605.15625,14.46
1603462605.171875,11.62
1603462605.1875,9.13
1603462605.203125,6.77
1603462605.21875,4.24
1603462605.234375,1.35
1603462605.25,-1.86
1603462605.265625,-5.18
1603462605.28125,-8.37
1603462605.296875,-11.25
1603462605.3125,-13.86
1603462605.328125,-16.37
1603462605.34375,-19.02
1603462605.359375,-22.05
1603462605.375,-25.62
1603462605.390625,-29.77
1603462605.40625,-34.35
1603462605.421875,-38.93
1603462605.4375,-42.83
1603462605.453125,-45.12
1603462605.46875,-44.85
1603462605.484375,-41.36
1603462605.5,-34.52
1603462605.515625,-24.89
1603462605.53125,-13.60
1603462605.546875,-2.01
1603462605.5625,8.63
1603462605.578125,17.49
1603462605.59375,24.27
1603462605.609375,29.01
1603462605.625,31.92
1603462605.640625,33.16
1603462605.65625,32.79
1603462605.671875,30.83
1603462605.6875,27.50
1603462605.703125,23.28
1603462605.71875,18.91
1603462605.734375,15.19
1603462605.75,12.71
1603462605.765625,11.67
1603462605.78125,11.88
1603462605.796875,12.92
1603462605.8125,14.34
1603462605.828125,15.79
1603462605.84375,17.07
1603462605.859375,18.07
1603462605.875,18.65
1603462605.890625,18.62
1603462605.90625,17.80
1603462605.921875,16.09
1603462605.9375,13.53
1603462605.953125,10.34
1603462605.96875,6.82
1603462605.984375,3.25
1603462606.0,-0.13
1603462606.015625,-3.25
1603462606.03125,-6.16
1603462606.046875,-8.99
1603462606.0625,-11.84
1603462606.078125,-14.74
1603462606.09375,-17.63
1603462606.109375,-20.41
1603462606.125,-23.10
1603462606.140625,-25.84
1603462606.15625,-28.87
1603462606.171875,-32.39
1603462606.1875,-36.32
1603462606.203125,-40.17
1603462606.21875,-43.10
1603462606.234375,-44.09
1603462606.25,-42.33
1603462606.265625,-37.50
1603462606.28125,-29.86
1603462606.296875,-20.24
1603462606.3125,-9.69
1603462606.328125,0.73
1603462606.34375,10.23
1603462606.359375,18.28
1603462606.375,24.55
1603462606.390625,28.88
1603462606.40625,31.18
1603462606.421875,31.50
1603462606.4375,30.06
1603462606.453125,27.26
1603462606.46875,23.66
1603462606.484375,19.85
1603462606.5,16.37
1603462606.515625,13.64
1603462606.53125,11.92
1603462606.546875,11.33
1603462606.5625,11.83
1603462606.578125,13.19
1603462606.59375,15.07
1603462606.609375,17.06
1603462606.625,18.77
1603462606.640625,19.93
1603462606.65625,20.38
1603462606.671875,20.06
1603462606.6875,18.97
1603462606.703125,17.17
1603462606.71875,14.81
1603462606.734375,12.08
1603462606.75,9.18
1603462606.765625,6.30
1603462606.78125,3.48
1603462606.796875,0.70
1603462606.8125,-2.14
1603462606.828125,-5.06
1603462606.84375,-7.98
1603462606.859375,-10.76
1603462606.875,-13.25
1603462606.890625,-15.45
1603462606.90625,-17.50
1603462606.921875,-19.73
1603462606.9375,-22.49
1603462606.953125,-26.09
1603462606.96875,-30.63
1603462606.984375,-35.93
1603462607.0,-41.47
1603462607.015625,-46.45
1603462607.03125,-49.91
1603462607.046875,-51.00
1603462607.0625,-49.15
1603462607.078125,-44.28
1603462607.09375,-36.77
1603462607.109375,-27.42
1603462607.125,-17.22
1603462607.140625,-7.18
1603462607.15625,1.89
1603462607.171875,9.43
1603462607.1875,15.18
1603462607.203125,19.01
1603462607.21875,20.94
1603462607.234375,21.04
1603462607.25,19.50
1603462607.265625,16.72
1603462607.28125,13.30
1603462607.296875,9.95
1603462607.3125,7.38
1603462607.328125,6.08
1603462607.34375,6.21
1603462607.359375,7.60
1603462607.375,9.87
1603462607.390625,12.62
1603462607.40625,15.50
1603462607.421875,18.26
1603462607.4375,20.73
1603462607.453125,22.73
1603462607.46875,24.06
1603462607.484375,24.57
1603462607.5,24.13
1603462607.515625,22.77
1603462607.53125,20.65
1603462607.546875,18.04
1603462607.5625,15.27
1603462607.578125,12.62
1603462607.59375,10.24
1603462607.609375,8.11
1603462607.625,6.06
1603462607.640625,3.84
1603462607.65625,1.25
1603462607.671875,-1.77
1603462607.6875,-5.15
1603462607.703125,-8.65
1603462607.71875,-12.02
1603462607.734375,-15.04
1603462607.75,-17.66
1603462607.765625,-20.02
1603462607.78125,-22.44
1603462607.796875,-25.34
1603462607.8125,-29.08
1603462607.828125,-33.78
1603462607.84375,-39.20
1603462607.859375,-44.65
1603462607.875,-49.17
1603462607.890625,-51.69
1603462607.90625,-51.36
1603462607.921875,-47.76
1603462607.9375,-40.97
1603462607.953125,-31.58
1603462607.96875,-20.54
1603462607.984375,-8.98
1603462608.0,1.99
1603462608.015625,11.50
1603462608.03125,18.98
1603462608.046875,24.23
1603462608.0625,27.36
1603462608.078125,28.61
1603462608.09375,28.34
1603462608.109375,26.86
1603462608.125,24.51
1603462608.140625,21.70
1603462608.15625,18.86
1603462608.171875,16.46
1603462608.1875,14.86
1603462608.203125,14.28
1603462608.21875,14.79
1603462608.234375,16.23
1603462608.25,18.37
1603462608.265625,20.84
1603462608.28125,23.26
1603462608.296875,25.21
1603462608.3125,26.38
1603462608.328125,26.61
1603462608.34375,25.92
1603462608.359375,24.52
1603462608.375,22.68
1603462608.390625,20.67
1603462608.40625,18.63
1603462608.421875,16.59
1603462608.4375,14.48
1603462608.453125,12.25
1603462608.46875,9.89
1603462608.484375,7.47
1603462608.5,5.08
1603462608.515625,2.79
1603462608.53125,0.60
1603462608.546875,-1.59
1603462608.5625,-3.89
1603462608.578125,-6.42
1603462608.59375,-9.22
1603462608.609375,-12.17
1603462608.625,-15.11
1603462608.640625,-17.86
1603462608.65625,-20.35
1603462608.671875,-22.66
1603462608.6875,-24.94
1603462608.703125,-27.40
1603462608.71875,-30.24
1603462608.734375,-33.62
1603462608.75,-37.56
1603462608.765625,-41.96
1603462608.78125,-46.40
1603462608.796875,-50.18
1603462608.8125,-52.33
1603462608.828125,-51.86
1603462608.84375,-48.06
1603462608.859375,-40.77
1603462608.875,-30.56
1603462608.890625,-18.54
1603462608.90625,-6.04
1603462608.921875,5.67
1603462608.9375,15.72
1603462608.953125,23.65
1603462608.96875,29.35
1603462608.984375,32.90
1603462609.0,34.49
1603462609.015625,34.35
1603462609.03125,32.82
1603462609.046875,30.35
1603462609.0625,27.45
1603462609.078125,24.64
1603462609.09375,22.38
1603462609.109375,20.91
1603462609.125,20.37
1603462609.140625,20.70
1603462609.15625,21.77
1603462609.171875,23.38
1603462609.1875,25.28
1603462609.203125,27.23
1603462609.21875,28.96
1603462609.234375,30.23
1603462609.25,30.83
1603462609.265625,30.64
1603462609.28125,29.64
1603462609.296875,27.93
1603462609.3125,25.70
1603462609.328125,23.17
1603462609.34375,20.52
1603462609.359375,17.87
1603462609.375,15.28
1603462609.390625,12.74
1603462609.40625,10.22
1603462609.421875,7.74
1603462609.4375,5.33
1603462609.453125,3.06
1603462609.46875,0.98
1603462609.484375,-0.89
1603462609.5,-2.60
1603462609.515625,-4.26
1603462609.53125,-6.00
1603462609.546875,-7.97
1603462609.5625,-10.26
1603462609.578125,-12.87
1603462609.59375,-15.69
1603462609.609375,-18.59
1603462609.625,-21.38
1603462609.640625,-23.98
1603462609.65625,-26.43
1603462609.671875,-28.92
1603462609.6875,-31.75
1603462609.703125,-35.23
1603462609.71875,-39.53
1603462609.734375,-44.49
1603462609.75,-49.55
1603462609.765625,-53.76
1603462609.78125,-55.99
1603462609.796875,-55.23
1603462609.8125,-50.88
1603462609.828125,-42.96
1603462609.84375,-32.11
1603462609.859375,-19.44
1603462609.875,-6.28
1603462609.890625,6.14
1603462609.90625,16.82
1603462609.921875,25.15
1603462609.9375,30.90
1603462609.953125,34.14
1603462609.96875,35.16
1603462609.984375,34.32
1603462610.0,32.05
1603462610.015625,28.80
1603462610.03125,25.05
1603462610.046875,21.30
1603462610.0625,18.05
1603462610.078125,15.70
1603462610.09375,14.46
1603462610.109375,14.34
1603462610.125,15.18
1603462610.140625,16.71
1603462610.15625,18.66
1603462610.171875,20.73
1603462610.1875,22.63
1603462610.203125,24.05
1603462610.21875,24.71
1603462610.234375,24.41
1603462610.25,23.12
1603462610.265625,21.03
1603462610.28125,18.48
1603462610.296875,15.84
1603462610.3125,13.40
1603462610.328125,11.25
1603462610.34375,9.33
1603462610.359375,7.52
1603462610.375,5.64
1603462610.390625,3.64
1603462610.40625,1.53
1603462610.421875,-0.58
1603462610.4375,-2.56
1603462610.453125,-4.30
1603462610.46875,-5.81
1603462610.484375,-7.21
1603462610.5,-8.71
1603462610.515625,-10.52
1603462610.53125,-12.71
1603462610.546875,-15.22
1603462610.5625,-17.83
1603462610.578125,-20.29
1603462610.59375,-22.41
1603462610.609375,-24.22
1603462610.625,-25.89
1603462610.640625,-27.73
1603462610.65625,-30.05
1603462610.671875,-33.07
1603462610.6875,-36.82
1603462610.703125,-41.07
1603462610.71875,-45.27
1603462610.734375,-48.59
1603462610.75,-50.10
1603462610.765625,-48.96
1603462610.78125,-44.67
1603462610.796875,-37.27
1603462610.8125,-27.31
1603462610.828125,-15.79
1603462610.84375,-3.86
1603462610.859375,7.37
1603462610.875,17.04
1603462610.890625,24.63
1603462610.90625,29.90
1603462610.921875,32.87
1603462610.9375,33.68
1603462610.953125,32.62
1603462610.96875,30.08
1603462610.984375,26.57
1603462611.0,22.73
1603462611.015625,19.20
1603462611.03125,16.54
1603462611.046875,15.08
1603462611.0625,14.94
1603462611.078125,15.95
1603462611.09375,17.84
1603462611.109375,20.22
1603462611.125,22.69
1603462611.140625,24.93
1603462611.15625,26.61
1603462611.171875,27.57
1603462611.1875,27.70
1603462611.203125,27.03
1603462611.21875,25.63
1603462611.234375,23.65
1603462611.25,21.22
1603462611.265625,18.52
1603462611.28125,15.72
1603462611.296875,12.93
1603462611.3125,10.22
1603462611.328125,7.57
1603462611.34375,4.94
1603462611.359375,2.29
1603462611.375,-0.34
1603462611.390625,-2.86
1603462611.40625,-5.17
1603462611.421875,-7.23
1603462611.4375,-9.14
1603462611.453125,-11.03
1603462611.46875,-13.06
1603462611.484375,-15.32
1603462611.5,-17.79
1603462611.515625,-20.40
1603462611.53125,-23.04
1603462611.546875,-25.59
1603462611.5625,-28.00
1603462611.578125,-30.27
1603462611.59375,-32.53
1603462611.609375,-35.01
1603462611.625,-38.02
1603462611.640625,-41.82
1603462611.65625,-46.47
1603462611.671875,-51.65
1603462611.6875,-56.59
1603462611.703125,-60.21
1603462611.71875,-61.34
1603462611.734375,-59.08
1603462611.75,-53.12
1603462611.765625,-43.79
1603462611.78125,-32.02
1603462611.796875,-19.04
1603462611.8125,-6.10
1603462611.828125,5.82
1603462611.84375,16.03
1603462611.859375,24.17
1603462611.875,30.06
1603462611.890625,33.68
1603462611.90625,35.12
1603462611.921875,34.61
1603462611.9375,32.56
1603462611.953125,29.55
1603462611.96875,26.20
1603462611.984375,23.10
1603462612.0,20.69
1603462612.015625,19.22
1603462612.03125,18.75
1603462612.046875,19.18
1603462612.0625,20.34
1603462612.078125,22.02
1603462612.09375,24.01
1603462612.109375,26.09
1603462612.125,27.99
1603462612.140625,29.49
1603462612.15625,30.34
1603462612.171875,30.39
1603462612.1875,29.57
1603462612.203125,27.97
1603462612.21875,25.78
1603462612.234375,23.25
1603462612.25,20.63
1603462612.265625,18.11
1603462612.28125,15.76
1603462612.296875,13.57
1603462612.3125,11.47
1603462612.328125,9.38
1603462612.34375,7.23
1603462612.359375,5.01
1603462612.375,2.77
1603462612.390625,0.54
1603462612.40625,-1.61
1603462612.421875,-3.64
1603462612.4375,-5.61
1603462612.453125,-7.59
1603462612.46875,-9.73
1603462612.484375,-12.17
1603462612.5,-14.98
1603462612.515625,-18.10
1603462612.53125,-21.37
1603462612.546875,-24.57
1603462612.5625,-27.52
1603462612.578125,-30.19
1603462612.59375,-32.75
1603462612.609375,-35.52
1603462612.625,-38.90
1603462612.640625,-43.16
1603462612.65625,-48.30
1603462612.671875,-53.84
1603462612.6875,-58.90
1603462612.703125,-62.27
1603462612.71875,-62.79
1603462612.734375,-59.65
1603462612.75,-52.70
1603462612.765625,-42.54
1603462612.78125,-30.31
1603462612.796875,-17.45
1603462612.8125,-5.29
1603462612.828125,5.25
1603462612.84375,13.68
1603462612.859375,19.95
1603462612.875,24.22
1603462612.890625,26.66
1603462612.90625,27.39
1603462612.921875,26.47
1603462612.9375,24.03
1603462612.953125,20.41
1603462612.96875,16.14
1603462612.984375,11.92
1603462613.0,8.42
1603462613.015625,6.13
1603462613.03125,5.26
1603462613.046875,5.73
1603462613.0625,7.36
1603462613.078125,9.89
1603462613.09375,13.12
1603462613.109375,16.81
1603462613.125,20.68
1603462613.140625,24.35
1603462613.15625,27.38
1603462613.171875,29.44
1603462613.1875,30.40
1603462613.203125,30.44
1603462613.21875,29.92
1603462613.234375,29.18
1603462613.25,28.42
1603462613.265625,27.56
1603462613.28125,26.35
1603462613.296875,24.55
1603462613.3125,22.11
1603462613.328125,19.21
1603462613.34375,16.17
1603462613.359375,13.24
1603462613.375,10.49
1603462613.390625,7.77
1603462613.40625,4.80
1603462613.421875,1.44
1603462613.4375,-2.30
1603462613.453125,-6.18
1603462613.46875,-9.88
1603462613.484375,-13.11
1603462613.5,-15.74
1603462613.515625,-17.81
1603462613.53125,-19.56
1603462613.546875,-21.34
1603462613.5625,-23.54
1603462613.578125,-26.54
1603462613.59375,-30.53
1603462613.609375,-35.45
1603462613.625,-40.90
1603462613.640625,-46.07
1603462613.65625,-49.92
1603462613.671875,-51.36
1603462613.6875,-49.56
1603462613.703125,-44.18
1603462613.71875,-35.51
1603462613.734375,-24.41
1603462613.75,-12.16
1603462613.765625,-0.07
1603462613.78125,10.75
1603462613.796875,19.62
1603462613.8125,26.27
1603462613.828125,30.78
1603462613.84375,33.37
1603462613.859375,34.28
1603462613.875,33.73
1603462613.890625,31.91
1603462613.90625,29.06
1603462613.921875,25.55
1603462613.9375,21.88
1603462613.953125,18.60
1603462613.96875,16.17
1603462613.984375,14.92
1603462614.0,14.90
1603462614.015625,15.95
1603462614.03125,17.75
1603462614.046875,19.92
1603462614.0625,22.04
1603462614.078125,23.74
1603462614.09375,24.76
1603462614.109375,24.98
1603462614.125,24.42
1603462614.140625,23.21
1603462614.15625,21.53
1603462614.171875,19.47
1603462614.1875,17.10
1603462614.203125,14.43
1603462614.21875,11.52
1603462614.234375,8.51
1603462614.25,5.60
1603462614.265625,2.94
1603462614.28125,0.56
1603462614.296875,-1.69
1603462614.3125,-4.04
1603462614.328125,-6.70
1603462614.34375,-9.71
1603462614.359375,-12.96
1603462614.375,-16.19
1603462614.390625,-19.18
1603462614.40625,-21.78
1603462614.421875,-23.98
1603462614.4375,-25.95
1603462614.453125,-27.94
1603462614.46875,-30.29
1603462614.484375,-33.35
1603462614.5,-37.31
1603462614.515625,-42.12
1603462614.53125,-47.37
1603462614.546875,-52.29
1603462614.5625,-55.81
1603462614.578125,-56.84
1603462614.59375,-54.57
1603462614.609375,-48.71
1603462614.625,-39.59
1603462614.640625,-28.14
1603462614.65625,-15.58
1603462614.671875,-3.19
1603462614.6875,7.96
1603462614.703125,17.19
1603462614.71875,24.15
1603462614.734375,28.71
1603462614.75,30.94
1603462614.765625,30.99
1603462614.78125,29.19
1603462614.796875,26.05
1603462614.8125,22.28
1603462614.828125,18.65
1603462614.84375,15.86
1603462614.859375,14.36
1603462614.875,14.34
1603462614.890625,15.71
1603462614.90625,18.19
1603462614.921875,21.39
1603462614.9375,24.87
1603462614.953125,28.17
1603462614.96875,30.84
1603462614.984375,32.47
1603462615.0,32.83
1603462615.015625,31.90
1603462615.03125,29.87
1603462615.046875,27.08
1603462615.0625,23.90
1603462615.078125,20.56
1603462615.09375,17.14
1603462615.109375,13.60
1603462615.125,9.83
1603462615.140625,5.85
1603462615.15625,1.72
1603462615.171875,-2.37
1603462615.1875,-6.28
1603462615.203125,-9.92
1603462615.21875,-13.30
1603462615.234375,-16.46
1603462615.25,-19.48
1603462615.265625,-22.48
1603462615.28125,-25.62
1603462615.296875,-29.13
1603462615.3125,-33.20
1603462615.328125,-37.81
1603462615.34375,-42.62
1603462615.359375,-46.92
1603462615.375,-49.77
1603462615.390625,-50.26
1603462615.40625,-47.77
1603462615.421875,-42.22
1603462615.4375,-33.99
1603462615.453125,-23.81
1603462615.46875,-12.63
1603462615.484375,-1.35
1603462615.5,9.22
1603462615.515625,18.39
1603462615.53125,25.66
1603462615.546875,30.69
1603462615.5625,33.37
1603462615.578125,33.78
1603462615.59375,32.25
1603462615.609375,29.25
1603462615.625,25.36
1603462615.640625,21.21
1603462615.65625,17.43
1603462615.671875,14.55
1603462615.6875,12.92
1603462615.703125,12.67
1603462615.71875,13.64
1603462615.734375,15.49
1603462615.75,17.71
1603462615.765625,19.82
1603462615.78125,21.41
1603462615.796875,22.24
1603462615.8125,22.22
1603462615.828125,21.32
1603462615.84375,19.59
1603462615.859375,17.12
1603462615.875,14.05
1603462615.890625,10.60
1603462615.90625,7.00
1603462615.921875,3.50
1603462615.9375,0.22
1603462615.953125,-2.89
1603462615.96875,-6.02
1603462615.984375,-9.35
1603462616.0,-12.96
1603462616.015625,-16.73
1603462616.03125,-20.36
1603462616.046875,-23.56
1603462616.0625,-26.22
1603462616.078125,-28.49
1603462616.09375,-30.78
1603462616.109375,-33.62
1603462616.125,-37.33
1603462616.140625,-41.94
1603462616.15625,-46.99
1603462616.171875,-51.64
1603462616.1875,-54.83
1603462616.203125,-55.50
1603462616.21875,-52.92
1603462616.234375,-46.85
1603462616.25,-37.65
1603462616.265625,-26.21
1603462616.28125,-13.71
1603462616.296875,-1.34
1603462616.3125,9.91
1603462616.328125,19.42
1603462616.34375,26.85
1603462616.359375,32.13
1603462616.375,35.33
1603462616.390625,36.64
1603462616.40625,36.33
1603462616.421875,34.75
1603462616.4375,32.30
1603462616.453125,29.44
1603462616.46875,26.60
1603462616.484375,24.18
1603462616.5,22.49
1603462616.515625,21.73
1603462616.53125,21.93
1603462616.546875,22.93
1603462616.5625,24.45
1603462616.578125,26.15
1603462616.59375,27.74
1603462616.609375,28.96
1603462616.625,29.62
1603462616.640625,29.59
1603462616.65625,28.73
1603462616.671875,27.01
1603462616.6875,24.49
1603462616.703125,21.33
1603462616.71875,17.79
1603462616.734375,14.17
1603462616.75,10.71
1603462616.765625,7.61
1603462616.78125,4.90
1603462616.796875,2.42
1603462616.8125,-0.08
1603462616.828125,-2.88
1603462616.84375,-6.14
1603462616.859375,-9.78
1603462616.875,-13.45
1603462616.890625,-16.77
1603462616.90625,-19.44
1603462616.921875,-21.50
1603462616.9375,-23.29
1603462616.953125,-25.34
1603462616.96875,-28.13
1603462616.984375,-31.93
1603462617.0,-36.65
1603462617.015625,-41.87
1603462617.03125,-46.82
1603462617.046875,-50.51
1603462617.0625,-51.92
1603462617.078125,-50.26
1603462617.09375,-45.19
1603462617.109375,-36.99
1603462617.125,-26.45
1603462617.140625,-14.70
1603462617.15625,-2.88
1603462617.171875,8.10
1603462617.1875,17.61
1603462617.203125,25.30
1603462617.21875,31.00
1603462617.234375,34.67
1603462617.25,36.39
1603462617.265625,36.38
1603462617.28125,34.93
1603462617.296875,32.45
1603462617.3125,29.38
1603462617.328125,26.20
1603462617.34375,23.41
1603462617.359375,21.42
1603462617.375,20.50
1603462617.390625,20.71
1603462617.40625,21.81
1603462617.421875,23.43
1603462617.4375,25.12
1603462617.453125,26.55
1603462617.46875,27.52
1603462617.484375,27.96
1603462617.5,27.83
1603462617.515625,27.10
1603462617.53125,25.70
1603462617.546875,23.59
1603462617.5625,20.82
1603462617.578125,17.56
1603462617.59375,14.10
1603462617.609375,10.74
1603462617.625,7.70
1603462617.640625,5.09
1603462617.65625,2.83
1603462617.671875,0.73
1603462617.6875,-1.44
1603462617.703125,-3.85
1603462617.71875,-6.57
1603462617.734375,-9.54
1603462617.75,-12.62
1603462617.765625,-15.63
1603462617.78125,-18.45
1603462617.796875,-21.02
1603462617.8125,-23.40
1603462617.828125,-25.74
1603462617.84375,-28.26
1603462617.859375,-31.19
1603462617.875,-34.76
1603462617.890625,-39.02
1603462617.90625,-43.69
1603462617.921875,-48.11
1603462617.9375,-51.26
1603462617.953125,-52.01
1603462617.96875,-49.49
1603462617.984375,-43.39
1603462618.0,-34.14
1603462618.015625,-22.81
1603462618.03125,-10.75
1603462618.046875,0.76
1603462618.0625,10.85
1603462618.078125,19.09
1603462618.09375,25.41
1603462618.109375,29.86
1603462618.125,32.52
1603462618.140625,33.49
1603462618.15625,32.89
1603462618.171875,31.03
1603462618.1875,28.33
1603462618.203125,25.30
1603462618.21875,22.43
1603462618.234375,20.10
1603462618.25,18.53
1603462618.265625,17.83
1603462618.28125,17.99
1603462618.296875,18.88
1603462618.3125,20.28
1603462618.328125,21.86
1603462618.34375,23.34
1603462618.359375,24.44
1603462618.375,25.02
1603462618.390625,24.98
1603462618.40625,24.23
1603462618.421875,22.66
1603462618.4375,20.26
1603462618.453125,17.14
1603462618.46875,13.62
1603462618.484375,10.16
1603462618.5,7.12
1603462618.515625,4.65
1603462618.53125,2.58
1603462618.546875,0.50
1603462618.5625,-2.00
1603462618.578125,-5.11
1603462618.59375,-8.72
1603462618.609375,-12.46
1603462618.625,-15.90
1603462618.640625,-18.73
1603462618.65625,-20.89
1603462618.671875,-22.56
1603462618.6875,-24.08
1603462618.703125,-25.83
1603462618.71875,-28.14
1603462618.734375,-31.15
1603462618.75,-34.84
1603462618.765625,-39.00
1603462618.78125,-43.21
1603462618.796875,-46.82
1603462618.8125,-49.04
1603462618.828125,-48.99
1603462618.84375,-45.99
1603462618.859375,-39.78
1603462618.875,-30.70
1603462618.890625,-19.69
1603462618.90625,-8.07
1603462618.921875,2.86
1603462618.9375,12.14
1603462618.953125,19.34
1603462618.96875,24.44
1603462618.984375,27.67
1603462619.0,29.22
1603462619.015625,29.18
1603462619.03125,27.67
1603462619.046875,24.96
1603462619.0625,21.58
1603462619.078125,18.17
1603462619.09375,15.36
1603462619.109375,13.58
1603462619.125,12.87
1603462619.140625,13.05
1603462619.15625,13.81
1603462619.171875,14.89
1603462619.1875,16.18
1603462619.203125,17.64
1603462619.21875,19.20
1603462619.234375,20.68
1603462619.25,21.73
1603462619.265625,21.96
1603462619.28125,21.08
1603462619.296875,19.04
1603462619.3125,16.05
1603462619.328125,12.53
1603462619.34375,8.92
1603462619.359375,5.57
1603462619.375,2.57
1603462619.390625,-0.19
1603462619.40625,-2.90
1603462619.421875,-5.73
1603462619.4375,-8.72
1603462619.453125,-11.81
1603462619.46875,-14.86
1603462619.484375,-17.76
1603462619.5,-20.46
1603462619.515625,-23.03
1603462619.53125,-25.63
1603462619.546875,-28.49
1603462619.5625,-31.76
1603462619.578125,-35.43
1603462619.59375,-39.21
1603462619.609375,-42.47
1603462619.625,-44.38
1603462619.640625,-44.09
1603462619.65625,-41.00
1603462619.671875,-34.99
1603462619.6875,-26.47
1603462619.703125,-16.32
1603462619.71875,-5.61
1603462619.734375,4.61
1603462619.75,13.52
1603462619.765625,20.65
1603462619.78125,25.79
1603462619.796875,28.93
1603462619.8125,30.18
1603462619.828125,29.74
1603462619.84375,27.88
1603462619.859375,24.99
1603462619.875,21.56
1603462619.890625,18.09
1603462619.90625,15.05
1603462619.921875,12.77
1603462619.9375,11.44
1603462619.953125,11.07
1603462619.96875,11.55
1603462619.984375,12.66
1603462620.0,14.11
1603462620.015625,15.53
1603462620.03125,16.58
1603462620.046875,17.00
1603462620.0625,16.67
1603462620.078125,15.63
1603462620.09375,13.99
1603462620.109375,11.89
1603462620.125,9.42
1603462620.140625,6.65
1603462620.15625,3.66
1603462620.171875,0.60
1603462620.1875,-2.36
1603462620.203125,-5.03
1603462620.21875,-7.39
1603462620.234375,-9.52
1603462620.25,-11.64
1603462620.265625,-14.02
1603462620.28125,-16.88
1603462620.296875,-20.33
1603462620.3125,-24.38
1603462620.328125,-28.89
1603462620.34375,-33.50
1603462620.359375,-37.64
1603462620.375,-40.53
1603462620.390625,-41.32
1603462620.40625,-39.37
1603462620.421875,-34.44
1603462620.4375,-26.83
1603462620.453125,-17.33
1603462620.46875,-7.02
1603462620.484375,3.03
1603462620.5,11.95
1603462620.515625,19.20
1603462620.53125,24.56
1603462620.546875,28.01
1603462620.5625,29.64
1603462620.578125,29.57
1603462620.59375,27.97
1603462620.609375,25.09
1603462620.625,21.31
1603462620.640625,17.15
1603462620.65625,13.22
1603462620.671875,10.09
1603462620.6875,8.16
1603462620.703125,7.53
1603462620.71875,8.01
1603462620.734375,9.21
1603462620.75,10.68
1603462620.765625,12.08
1603462620.78125,13.24
1603462620.796875,14.10
1603462620.8125,14.61
1603462620.828125,14.61
1603462620.84375,13.86
1603462620.859375,12.11
1603462620.875,9.25
1603462620.890625,5.45
1603462620.90625,1.15
1603462620.921875,-3.06
1603462620.9375,-6.71
1603462620.953125,-9.55
1603462620.96875,-11.66
1603462620.984375,-13.38
1603462621.0,-15.10
1603462621.015625,-17.21
1603462621.03125,-19.95
1603462621.046875,-23.42
1603462621.0625,-27.59
1603462621.078125,-32.27
1603462621.09375,-37.01
1603462621.109375,-41.13
1603462621.125,-43.79
1603462621.140625,-44.11
1603462621.15625,-41.52
1603462621.171875,-35.87
1603462621.1875,-27.59
1603462621.203125,-17.55
1603462621.21875,-6.83
1603462621.234375,3.46
1603462621.25,12.42
1603462621.265625,19.45
1603462621.28125,24.26
1603462621.296875,26.80
1603462621.3125,27.22
1603462621.328125,25.81
1603462621.34375,22.98
1603462621.359375,19.24
1603462621.375,15.20
1603462621.390625,11.50
1603462621.40625,8.70
1603462621.421875,7.18
1603462621.4375,7.06
1603462621.453125,8.19
1603462621.46875,10.20
1603462621.484375,12.61
1603462621.5,14.93
1603462621.515625,16.76
1603462621.53125,17.87
1603462621.546875,18.14
1603462621.5625,17.59
1603462621.578125,16.32
1603462621.59375,14.44
1603462621.609375,12.03
1603462621.625,9.11
1603462621.640625,5.77
1603462621.65625,2.16
1603462621.671875,-1.48
1603462621.6875,-4.88
1603462621.703125,-7.85
1603462621.71875,-10.38
1603462621.734375,-12.64
1603462621.75,-14.93
1603462621.765625,-17.53
1603462621.78125,-20.66
1603462621.796875,-24.37
1603462621.8125,-28.60
1603462621.828125,-33.13
1603462621.84375,-37.58
1603462621.859375,-41.34
1603462621.875,-43.63
1603462621.890625,-43.59
1603462621.90625,-40.64
1603462621.921875,-34.61
1603462621.9375,-25.95
1603462621.953125,-15.53
1603462621.96875,-4.48
1603462621.984375,6.14
1603462622.0,15.51
1603462622.015625,23.11
1603462622.03125,28.68
1603462622.046875,32.12
1603462622.0625,33.49
1603462622.078125,32.91
1603462622.09375,30.71
1603462622.109375,27.39
1603462622.125,23.59
1603462622.140625,19.96
1603462622.15625,17.06
1603462622.171875,15.24
1603462622.1875,14.58
1603462622.203125,14.97
1603462622.21875,16.18
1603462622.234375,17.90
1603462622.25,19.85
1603462622.265625,21.76
1603462622.28125,23.35
1603462622.296875,24.35
1603462622.3125,24.52
1603462622.328125,23.68
1603462622.34375,21.82
1603462622.359375,19.10
1603462622.375,15.84
1603462622.390625,12.46
1603462622.40625,9.33
1603462622.421875,6.66
1603462622.4375,4.42
1603462622.453125,2.37
1603462622.46875,0.19
1603462622.484375,-2.40
1603462622.5,-5.44
1603462622.515625,-8.74
1603462622.53125,-12.01
1603462622.546875,-14.95
1603462622.5625,-17.43
1603462622.578125,-19.52
1603462622.59375,-21.44
1603462622.609375,-23.44
1603462622.625,-25.75
1603462622.640625,-28.55
1603462622.65625,-31.96
1603462622.671875,-35.97
1603462622.6875,-40.34
1603462622.703125,-44.51
1603462622.71875,-47.59
1603462622.734375,-48.56
1603462622.75,-46.58
1603462622.765625,-41.27
1603462622.78125,-32.90
1603462622.796875,-22.32
1603462622.8125,-10.75
1603462622.828125,0.58
1603462622.84375,10.67
1603462622.859375,18.91
1603462622.875,25.02
1603462622.890625,29.01
1603462622.90625,31.00
1603462622.921875,31.25
1603462622.9375,30.07
1603462622.953125,27.89
1603462622.96875,25.19
1603462622.984375,22.48
1603462623.0,20.18
1603462623.015625,18.61
1603462623.03125,17.88
1603462623.046875,18.01
1603462623.0625,18.92
1603462623.078125,20.48
1603462623.09375,22.50
1603462623.109375,24.72
1603462623.125,26.82
1603462623.140625,28.45
1603462623.15625,29.28
1603462623.171875,29.16
1603462623.1875,28.08
1603462623.203125,26.20
1603462623.21875,23.80
1603462623.234375,21.17
1603462623.25,18.55
1603462623.265625,16.07
1603462623.28125,13.73
1603462623.296875,11.46
1603462623.3125,9.15
1603462623.328125,6.73
1603462623.34375,4.21
1603462623.359375,1.67
1603462623.375,-0.75
1603462623.390625,-2.97
1603462623.40625,-4.99
1603462623.421875,-6.90
1603462623.4375,-8.83
1603462623.453125,-10.87
1603462623.46875,-13.03
1603462623.484375,-15.22
1603462623.5,-17.36
1603462623.515625,-19.37
1603462623.53125,-21.27
1603462623.546875,-23.19
1603462623.5625,-25.26
1603462623.578125,-27.67
1603462623.59375,-30.55
1603462623.609375,-33.99
1603462623.625,-37.97
1603462623.640625,-42.33
1603462623.65625,-46.56
1603462623.671875,-49.89
1603462623.6875,-51.33
1603462623.703125,-49.98
1603462623.71875,-45.28
1603462623.734375,-37.31
1603462623.75,-26.78
1603462623.765625,-14.90
1603462623.78125,-3.02
1603462623.796875,7.67
1603462623.8125,16.42
1603462623.828125,22.88
1603462623.84375,27.05
1603462623.859375,29.10
1603462623.875,29.26
1603462623.890625,27.81
1603462623.90625,25.09
1603462623.921875,21.57
1603462623.9375,17.81
1603462623.953125,14.37
1603462623.96875,11.75
1603462623.984375,10.23
1603462624.0,9.87
1603462624.015625,10.59
1603462624.03125,12.19
1603462624.046875,14.43
1603462624.0625,17.01
1603462624.078125,19.55
1603462624.09375,21.65
1603462624.109375,22.96
1603462624.125,23.24
1603462624.140625,22.51
1603462624.15625,20.93
1603462624.171875,18.77
1603462624.1875,16.27
1603462624.203125,13.58
1603462624.21875,10.83
1603462624.234375,8.08
1603462624.25,5.44
1603462624.265625,3.04
1603462624.28125,0.96
1603462624.296875,-0.79
1603462624.3125,-2.30
1603462624.328125,-3.74
1603462624.34375,-5.32
1603462624.359375,-7.16
1603462624.375,-9.35
1603462624.390625,-11.85
1603462624.40625,-14.49
1603462624.421875,-17.10
1603462624.4375,-19.49
1603462624.453125,-21.56
1603462624.46875,-23.37
1603462624.484375,-25.05
1603462624.5,-26.82
1603462624.515625,-28.93
1603462624.53125,-31.60
1603462624.546875,-34.92
1603462624.5625,-38.82
1603462624.578125,-42.92
1603462624.59375,-46.53
1603462624.609375,-48.71
1603462624.625,-48.52
1603462624.640625,-45.28
1603462624.65625,-38.82
1603462624.671875,-29.62
1603462624.6875,-18.63
1603462624.703125,-7.08
1603462624.71875,3.89
1603462624.734375,13.39
1603462624.75,20.91
1603462624.765625,26.25
1603462624.78125,29.46
1603462624.796875,30.75
1603462624.8125,30.38
1603462624.828125,28.70
1603462624.84375,26.08
1603462624.859375,22.92
1603462624.875,19.66
1603462624.890625,16.69
1603462624.90625,14.38
1603462624.921875,13.00
1603462624.9375,12.69
1603462624.953125,13.46
1603462624.96875,15.15
1603462624.984375,17.47
1603462625.0,19.96
1603462625.015625,22.12
1603462625.03125,23.51
1603462625.046875,23.87
1603462625.0625,23.22
1603462625.078125,21.78
1603462625.09375,19.89
1603462625.109375,17.82
1603462625.125,15.71
1603462625.140625,13.55
1603462625.15625,11.31
1603462625.171875,8.97
1603462625.1875,6.56
1603462625.203125,4.16
1603462625.21875,1.83
1603462625.234375,-0.41
1603462625.25,-2.50
1603462625.265625,-4.45
1603462625.28125,-6.23
1603462625.296875,-7.87
1603462625.3125,-9.52
1603462625.328125,-11.40
1603462625.34375,-13.72
1603462625.359375,-16.55
1603462625.375,-19.77
1603462625.390625,-23.06
1603462625.40625,-26.11
1603462625.421875,-28.72
1603462625.4375,-30.96
1603462625.453125,-33.11
1603462625.46875,-35.59
1603462625.484375,-38.77
1603462625.5,-42.76
1603462625.515625,-47.35
1603462625.53125,-51.91
1603462625.546875,-55.52
1603462625.5625,-57.14
1603462625.578125,-55.88
1603462625.59375,-51.29
1603462625.609375,-43.46
1603462625.625,-33.11
1603462625.640625,-21.31
1603462625.65625,-9.27
1603462625.671875,1.97
1603462625.6875,11.69
1603462625.703125,19.49
1603462625.71875,25.22
1603462625.734375,28.83
1603462625.75,30.40
1603462625.765625,30.10
1603462625.78125,28.26
1603462625.796875,25.39
1603462625.8125,22.07
1603462625.828125,18.93
1603462625.84375,16.46
1603462625.859375,14.95
1603462625.875,14.48
1603462625.890625,14.97
1603462625.90625,16.26
1603462625.921875,18.13
1603462625.9375,20.38
1603462625.953125,22.72
1603462625.96875,24.87
1603462625.984375,26.50
1603462626.0,27.36
1603462626.015625,27.31
1603462626.03125,26.41
1603462626.046875,24.82
1603462626.0625,22.84
1603462626.078125,20.73
1603462626.09375,18.67
1603462626.109375,16.74
1603462626.125,14.83
1603462626.140625,12.80
1603462626.15625,10.47
1603462626.171875,7.82
1603462626.1875,4.96
1603462626.203125,2.15
1603462626.21875,-0.38
1603462626.234375,-2.50
1603462626.25,-4.25
1603462626.265625,-5.83
1603462626.28125,-7.48
1603462626.296875,-9.36
1603462626.3125,-11.59
1603462626.328125,-14.16
1603462626.34375,-17.02
1603462626.359375,-20.07
1603462626.375,-23.16
1603462626.390625,-26.16
1603462626.40625,-28.98
1603462626.421875,-31.64
1603462626.4375,-34.40
1603462626.453125,-37.57
1603462626.46875,-41.44
1603462626.484375,-45.98
1603462626.5,-50.75
1603462626.515625,-54.90
1603462626.53125,-57.32
1603462626.546875,-57.04
1603462626.5625,-53.39
1603462626.578125,-46.32
1603462626.59375,-36.36
1603462626.609375,-24.51
1603462626.625,-11.99
1603462626.640625,0.04
1603462626.65625,10.67
1603462626.671875,19.41
1603462626.6875,26.06
1603462626.703125,30.67
1603462626.71875,33.36
1603462626.734375,34.25
1603462626.75,33.47
1603462626.765625,31.27
1603462626.78125,28.07
1603462626.796875,24.52
1603462626.8125,21.31
1603462626.828125,19.00
1603462626.84375,17.87
1603462626.859375,17.81
1603462626.875,18.55
1603462626.890625,19.75
1603462626.90625,21.21
1603462626.921875,22.87
1603462626.9375,24.70
1603462626.953125,26.57
1603462626.96875,28.20
1603462626.984375,29.19
1603462627.0,29.26
1603462627.015625,28.30
1603462627.03125,26.49
1603462627.046875,24.16
1603462627.0625,21.68
1603462627.078125,19.27
1603462627.09375,17.00
1603462627.109375,14.81
1603462627.125,12.57
1603462627.140625,10.24
1603462627.15625,7.78
1603462627.171875,5.26
1603462627.1875,2.79
1603462627.203125,0.42
1603462627.21875,-1.80
1603462627.234375,-3.93
1603462627.25,-6.09
1603462627.265625,-8.39
1603462627.28125,-10.93
1603462627.296875,-13.66
1603462627.3125,-16.50
1603462627.328125,-19.31
1603462627.34375,-21.97
1603462627.359375,-24.44
1603462627.375,-26.79
1603462627.390625,-29.13
1603462627.40625,-31.60
1603462627.421875,-34.37
1603462627.4375,-37.59
1603462627.453125,-41.41
1603462627.46875,-45.83
1603462627.484375,-50.56
1603462627.5,-54.93
1603462627.515625,-57.94
1603462627.53125,-58.47
1603462627.546875,-55.65
1603462627.5625,-49.14
1603462627.578125,-39.28
1603462627.59375,-27.02
1603462627.609375,-13.64
1603462627.625,-0.51
1603462627.640625,11.23
1603462627.65625,20.77
1603462627.671875,27.70
1603462627.6875,31.97
1603462627.703125,33.82
1603462627.71875,33.71
1603462627.734375,32.20
1603462627.75,29.81
1603462627.765625,27.04
1603462627.78125,24.25
1603462627.796875,21.72
1603462627.8125,19.68
1603462627.828125,18.30
1603462627.84375,17.71
1603462627.859375,17.99
1603462627.875,19.19
1603462627.890625,21.23
1603462627.90625,23.90
1603462627.921875,26.83
1603462627.9375,29.52
1603462627.953125,31.46
1603462627.96875,32.28
1603462627.984375,31.91
1603462628.0,30.49
1603462628.015625,28.36
1603462628.03125,25.90
1603462628.046875,23.38
1603462628.0625,20.91
1603462628.078125,18.49
1603462628.09375,16.06
1603462628.109375,13.54
1603462628.125,10.91
1603462628.140625,8.19
1603462628.15625,5.49
1603462628.171875,2.97
1603462628.1875,0.74
1603462628.203125,-1.13
1603462628.21875,-2.75
1603462628.234375,-4.30
1603462628.25,-6.03
1603462628.265625,-8.11
1603462628.28125,-10.59
1603462628.296875,-13.38
1603462628.3125,-16.27
1603462628.328125,-19.07
1603462628.34375,-21.67
1603462628.359375,-24.09
1603462628.375,-26.50
1603462628.390625,-29.20
1603462628.40625,-32.54
1603462628.421875,-36.71
1603462628.4375,-41.66
1603462628.453125,-46.89
1603462628.46875,-51.48
1603462628.484375,-54.21
1603462628.5,-53.92
1603462628.515625,-49.91
1603462628.53125,-42.12
1603462628.546875,-31.27
1603462628.5625,-18.66
1603462628.578125,-5.75
1603462628.59375,6.18
1603462628.609375,16.24
1603462628.625,24.03
1603462628.640625,29.49
1603462628.65625,32.71
1603462628.671875,33.85
1603462628.6875,33.12
1603462628.703125,30.75
1603462628.71875,27.12
1603462628.734375,22.74
1603462628.75,18.16
1603462628.765625,13.98
1603462628.78125,10.71
1603462628.796875,8.75
1603462628.8125,8.27
1603462628.828125,9.23
1603462628.84375,11.39
1603462628.859375,14.33
1603462628.875,17.55
1603462628.890625,20.56
1603462628.90625,22.90
1603462628.921875,24.26
1603462628.9375,24.46
1603462628.953125,23.49
1603462628.96875,21.54
1603462628.984375,18.92
1603462629.0,15.97
1603462629.015625,12.96
1603462629.03125,10.08
1603462629.046875,7.34
1603462629.0625,4.77
1603462629.078125,2.34
1603462629.09375,0.06
1603462629.109375,-2.07
1603462629.125,-4.15
1603462629.140625,-6.32
1603462629.15625,-8.74
1603462629.171875,-11.48
1603462629.1875,-14.48
1603462629.203125,-17.50
1603462629.21875,-20.29
1603462629.234375,-22.71
1603462629.25,-24.83
1603462629.265625,-26.93
1603462629.28125,-29.42
1603462629.296875,-32.66
1603462629.3125,-36.83
1603462629.328125,-41.74
1603462629.34375,-46.85
1603462629.359375,-51.36
1603462629.375,-54.30
1603462629.390625,-54.78
1603462629.40625,-52.16
1603462629.421875,-46.18
1603462629.4375,-37.05
1603462629.453125,-25.44
1603462629.46875,-12.41
1603462629.484375,0.82
1603462629.5,13.01
1603462629.515625,23.21
1603462629.53125,30.82
1603462629.546875,35.71
1603462629.5625,38.06
1603462629.578125,38.25
1603462629.59375,36.67
1603462629.609375,33.74
1603462629.625,29.90
1603462629.640625,25.64
1603462629.65625,21.56
1603462629.671875,18.24
1603462629.6875,16.09
1603462629.703125,15.29
1603462629.71875,15.75
1603462629.734375,17.19
1603462629.75,19.23
1603462629.765625,21.53
1603462629.78125,23.80
1603462629.796875,25.79
1603462629.8125,27.25
1603462629.828125,27.96
1603462629.84375,27.68
1603462629.859375,26.29
1603462629.875,23.80
1603462629.890625,20.41
1603462629.90625,16.49
1603462629.921875,12.48
1603462629.9375,8.75
1603462629.953125,5.55
1603462629.96875,2.85
1603462629.984375,0.40
1603462630.0,-2.15
1603462630.015625,-5.09
1603462630.03125,-8.54
1603462630.046875,-12.36
1603462630.0625,-16.24
1603462630.078125,-19.89
1603462630.09375,-23.12
1603462630.109375,-25.96
1603462630.125,-28.68
1603462630.140625,-31.67
1603462630.15625,-35.33
1603462630.171875,-39.92
1603462630.1875,-45.37
1603462630.203125,-51.21
1603462630.21875,-56.53
1603462630.234375,-60.11
1603462630.25,-60.80
1603462630.265625,-57.82
1603462630.28125,-50.98
1603462630.296875,-40.81
1603462630.3125,-28.38
1603462630.328125,-15.00
1603462630.34375,-1.93
1603462630.359375,9.82
1603462630.375,19.61
1603462630.390625,27.08
1603462630.40625,32.15
1603462630.421875,34.87
1603462630.4375,35.43
1603462630.453125,34.11
1603462630.46875,31.33
1603462630.484375,27.63
1603462630.5,23.63
1603462630.515625,19.95
1603462630.53125,17.08
1603462630.546875,15.31
1603462630.5625,14.69
1603462630.578125,15.11
1603462630.59375,16.38
1603462630.609375,18.26
1603462630.625,20.46
1603462630.640625,22.61
1603462630.65625,24.27
1603462630.671875,24.99
1603462630.6875,24.48
1603462630.703125,22.67
1603462630.71875,19.79
1603462630.734375,16.25
1603462630.75,12.55
1603462630.765625,9.03
1603462630.78125,5.86
1603462630.796875,2.96
1603462630.8125,0.08
1603462630.828125,-3.06
1603462630.84375,-6.65
1603462630.859375,-10.62
1603462630.875,-14.77
1603462630.890625,-18.79
1603462630.90625,-22.48
1603462630.921875,-25.85
1603462630.9375,-29.07
1603462630.953125,-32.41
1603462630.96875,-36.14
1603462630.984375,-40.44
1603462631.0,-45.44
1603462631.015625,-51.16
1603462631.03125,-57.41
1603462631.046875,-63.64
1603462631.0625,-68.88
1603462631.078125,-71.80
1603462631.09375,-71.17
1603462631.109375,-66.24
1603462631.125,-57.09
1603462631.140625,-44.58
1603462631.15625,-30.10
1603462631.171875,-15.06
1603462631.1875,-0.61
1603462631.203125,12.54
1603462631.21875,24.05
1603462631.234375,33.71
1603462631.25,41.39
1603462631.265625,46.99
1603462631.28125,50.56
1603462631.296875,52.32
1603462631.3125,52.65
1603462631.328125,52.04
1603462631.34375,50.94
1603462631.359375,49.71
1603462631.375,48.59
1603462631.390625,47.71
1603462631.40625,47.16
1603462631.421875,47.01
1603462631.4375,47.28
1603462631.453125,47.94
1603462631.46875,48.82
1603462631.484375,49.61
1603462631.5,49.90
1603462631.515625,49.22
1603462631.53125,47.24
1603462631.546875,43.86
1603462631.5625,39.23
1603462631.578125,33.81
1603462631.59375,28.11
1603462631.609375,22.65
1603462631.625,17.71
1603462631.640625,13.36
1603462631.65625,9.47
1603462631.671875,5.83
1603462631.6875,2.26
1603462631.703125,-1.28
1603462631.71875,-4.72
1603462631.734375,-7.94
1603462631.75,-10.88
1603462631.765625,-13.59
1603462631.78125,-16.26
1603462631.796875,-19.25
1603462631.8125,-22.89
1603462631.828125,-27.42
1603462631.84375,-32.80
1603462631.859375,-38.59
1603462631.875,-43.91
1603462631.890625,-47.62
1603462631.90625,-48.52
1603462631.921875,-45.75
1603462631.9375,-39.10
1603462631.953125,-29.06
1603462631.96875,-16.76
1603462631.984375,-3.63
1603462632.0,8.91
1603462632.015625,19.81
1603462632.03125,28.45
1603462632.046875,34.66
1603462632.0625,38.52
1603462632.078125,40.20
1603462632.09375,39.95
1603462632.109375,38.06
1603462632.125,34.93
1603462632.140625,31.05
1603462632.15625,27.04
1603462632.171875,23.50
1603462632.1875,20.88
1603462632.203125,19.45
1603462632.21875,19.23
1603462632.234375,20.05
1603462632.25,21.64
1603462632.265625,23.66
1603462632.28125,25.79
1603462632.296875,27.71
1603462632.3125,29.05
1603462632.328125,29.47
1603462632.34375,28.72
1603462632.359375,26.73
1603462632.375,23.68
1603462632.390625,19.96
1603462632.40625,16.07
1603462632.421875,12.45
1603462632.4375,9.37
1603462632.453125,6.85
1603462632.46875,4.73
1603462632.484375,2.72
1603462632.5,0.54
1603462632.515625,-1.98
1603462632.53125,-4.83
1603462632.546875,-7.83
1603462632.5625,-10.69
1603462632.578125,-13.15
1603462632.59375,-15.12
1603462632.609375,-16.74
1603462632.625,-18.37
1603462632.640625,-20.42
1603462632.65625,-23.26
1603462632.671875,-27.02
1603462632.6875,-31.60
1603462632.703125,-36.63
1603462632.71875,-41.50
1603462632.734375,-45.36
1603462632.75,-47.25
1603462632.765625,-46.30
1603462632.78125,-41.96
1603462632.796875,-34.26
1603462632.8125,-23.89
1603462632.828125,-12.06
1603462632.84375,-0.16
1603462632.859375,10.57
1603462632.875,19.33
1603462632.890625,25.79
1603462632.90625,30.00
1603462632.921875,32.15
1603462632.9375,32.45
1603462632.953125,31.08
1603462632.96875,28.30
1603462632.984375,24.52
1603462633.0,20.36
1603462633.015625,16.52
1603462633.03125,13.65
1603462633.046875,12.16
1603462633.0625,12.10
1603462633.078125,13.20
1603462633.09375,15.03
1603462633.109375,17.14
1603462633.125,19.21
1603462633.140625,21.06
1603462633.15625,22.51
1603462633.171875,23.41
1603462633.1875,23.57
1603462633.203125,22.84
1603462633.21875,21.18
1603462633.234375,18.71
1603462633.25,15.64
1603462633.265625,12.24
1603462633.28125,8.75
1603462633.296875,5.41
1603462633.3125,2.35
1603462633.328125,-0.33
1603462633.34375,-2.66
1603462633.359375,-4.74
1603462633.375,-6.72
1603462633.390625,-8.74
1603462633.40625,-10.81
1603462633.421875,-12.89
1603462633.4375,-14.85
1603462633.453125,-16.62
1603462633.46875,-18.24
1603462633.484375,-19.84
1603462633.5,-21.62
1603462633.515625,-23.80
1603462633.53125,-26.57
1603462633.546875,-30.05
1603462633.5625,-34.15
1603462633.578125,-38.51
1603462633.59375,-42.42
1603462633.609375,-44.91
1603462633.625,-45.00
1603462633.640625,-41.99
1603462633.65625,-35.73
1603462633.671875,-26.71
1603462633.6875,-15.92
1603462633.703125,-4.58
1603462633.71875,6.20
1603462633.734375,15.55
1603462633.75,22.97
1603462633.765625,28.17
1603462633.78125,31.07
1603462633.796875,31.74
1603462633.8125,30.41
1603462633.828125,27.51
1603462633.84375,23.62
1603462633.859375,19.44
1603462633.875,15.64
1603462633.890625,12.75
1603462633.90625,11.11
1603462633.921875,10.81
1603462633.9375,11.77
1603462633.953125,13.75
1603462633.96875,16.43
1603462633.984375,19.44
1603462634.0,22.35
1603462634.015625,24.72
1603462634.03125,26.19
1603462634.046875,26.52
1603462634.0625,25.66
1603462634.078125,23.72
1603462634.09375,20.94
1603462634.109375,17.61
1603462634.125,14.00
1603462634.140625,10.35
1603462634.15625,6.83
1603462634.171875,3.56
1603462634.1875,0.61
1603462634.203125,-2.01
1603462634.21875,-4.32
1603462634.234375,-6.44
1603462634.25,-8.51
1603462634.265625,-10.70
1603462634.28125,-13.11
1603462634.296875,-15.77
1603462634.3125,-18.61
1603462634.328125,-21.44
1603462634.34375,-24.07
1603462634.359375,-26.35
1603462634.375,-28.31
1603462634.390625,-30.12
1603462634.40625,-32.08
1603462634.421875,-34.54
1603462634.4375,-37.76
1603462634.453125,-41.82
1603462634.46875,-46.51
1603462634.484375,-51.24
1603462634.5,-55.07
1603462634.515625,-56.94
1603462634.53125,-55.88
1603462634.546875,-51.33
1603462634.5625,-43.38
1603462634.578125,-32.75
1603462634.59375,-20.61
1603462634.609375,-8.29
1603462634.625,3.05
1603462634.640625,12.64
1603462634.65625,20.09
1603462634.671875,25.36
1603462634.6875,28.58
1603462634.703125,29.92
1603462634.71875,29.60
1603462634.734375,27.89
1603462634.75,25.18
1603462634.765625,21.99
1603462634.78125,18.89
1603462634.796875,16.45
1603462634.8125,15.06
1603462634.828125,14.86
1603462634.84375,15.74
1603462634.859375,17.40
1603462634.875,19.46
1603462634.890625,21.58
1603462634.90625,23.47
1603462634.921875,24.93
1603462634.9375,25.84
1603462634.953125,26.15
1603462634.96875,25.87
1603462634.984375,25.03
1603462635.0,23.69
1603462635.015625,21.87
1603462635.03125,19.66
1603462635.046875,17.15
1603462635.0625,14.49
1603462635.078125,11.86
1603462635.09375,9.42
1603462635.109375,7.25
1603462635.125,5.33
1603462635.140625,3.54
1603462635.15625,1.73
1603462635.171875,-0.18
1603462635.1875,-2.22
1603462635.203125,-4.30
1603462635.21875,-6.32
1603462635.234375,-8.20
1603462635.25,-9.96
1603462635.265625,-11.67
1603462635.28125,-13.47
1603462635.296875,-15.51
1603462635.3125,-17.80
1603462635.328125,-20.28
1603462635.34375,-22.77
1603462635.359375,-25.07
1603462635.375,-27.06
1603462635.390625,-28.77
1603462635.40625,-30.37
1603462635.421875,-32.17
1603462635.4375,-34.50
1603462635.453125,-37.63
1603462635.46875,-41.67
1603462635.484375,-46.45
1603462635.5,-51.48
1603462635.515625,-55.94
1603462635.53125,-58.77
1603462635.546875,-58.96
1603462635.5625,-55.82
1603462635.578125,-49.20
1603462635.59375,-39.61
1603462635.609375,-28.09
1603462635.625,-15.91
1603462635.640625,-4.23
1603462635.65625,6.08
1603462635.671875,14.59
1603462635.6875,21.20
1603462635.703125,25.96
1603462635.71875,29.01
1603462635.734375,30.44
1603462635.75,30.35
1603462635.765625,28.94
1603462635.78125,26.54
1603462635.796875,23.63
1603462635.8125,20.77
1603462635.828125,18.46
1603462635.84375,17.05
1603462635.859375,16.65
1603462635.875,17.17
1603462635.890625,18.42
1603462635.90625,20.14
1603462635.921875,22.11
1603462635.9375,24.12
1603462635.953125,25.95
1603462635.96875,27.37
1603462635.984375,28.12
1603462636.0,28.00
1603462636.015625,26.94
1603462636.03125,25.04
1603462636.046875,22.59
1603462636.0625,19.92
1603462636.078125,17.34
1603462636.09375,15.03
1603462636.109375,12.98
1603462636.125,11.08
1603462636.140625,9.25
1603462636.15625,7.46
1603462636.171875,5.80
1603462636.1875,4.34
1603462636.203125,3.12
1603462636.21875,2.02
1603462636.234375,0.88
1603462636.25,-0.48
1603462636.265625,-2.11
1603462636.28125,-3.93
1603462636.296875,-5.77
1603462636.3125,-7.46
1603462636.328125,-8.95
1603462636.34375,-10.36
1603462636.359375,-11.87
1603462636.375,-13.68
1603462636.390625,-15.91
1603462636.40625,-18.51
1603462636.421875,-21.31
1603462636.4375,-24.09
1603462636.453125,-26.63
1603462636.46875,-28.83
1603462636.484375,-30.76
1603462636.5,-32.63
1603462636.515625,-34.78
1603462636.53125,-37.58
1603462636.546875,-41.28
1603462636.5625,-45.91
1603462636.578125,-51.09
1603462636.59375,-56.09
1603462636.609375,-59.87
1603462636.625,-61.40
1603462636.640625,-59.86
1603462636.65625,-54.89
1603462636.671875,-46.71
1603462636.6875,-36.04
1603462636.703125,-23.92
1603462636.71875,-11.52
1603462636.734375,0.12
1603462636.75,10.18
1603462636.765625,18.14
1603462636.78125,23.79
1603462636.796875,27.19
1603462636.8125,28.60
1603462636.828125,28.41
1603462636.84375,27.01
1603462636.859375,24.80
1603462636.875,22.16
1603462636.890625,19.54
1603462636.90625,17.36
1603462636.921875,16.02
1603462636.9375,15.79
1603462636.953125,16.70
1603462636.96875,18.51
1603462636.984375,20.85
1603462637.0,23.34
1603462637.015625,25.69
1603462637.03125,27.74
1603462637.046875,29.42
1603462637.0625,30.62
1603462637.078125,31.20
1603462637.09375,30.95
1603462637.109375,29.80
1603462637.125,27.83
1603462637.140625,25.35
1603462637.15625,22.76
1603462637.171875,20.37
1603462637.1875,18.33
1603462637.203125,16.58
1603462637.21875,14.96
1603462637.234375,13.31
1603462637.25,11.60
1603462637.265625,9.88
1603462637.28125,8.22
1603462637.296875,6.60
1603462637.3125,4.95
1603462637.328125,3.16
1603462637.34375,1.22
1603462637.359375,-0.78
1603462637.375,-2.73
1603462637.390625,-4.54
1603462637.40625,-6.23
1603462637.421875,-7.94
1603462637.4375,-9.85
1603462637.453125,-12.07
1603462637.46875,-14.57
1603462637.484375,-17.23
1603462637.5,-19.90
1603462637.515625,-22.45
1603462637.53125,-24.82
1603462637.546875,-27.04
1603462637.5625,-29.21
1603462637.578125,-31.47
1603462637.59375,-34.07
1603462637.609375,-37.25
1603462637.625,-41.19
1603462637.640625,-45.81
1603462637.65625,-50.72
1603462637.671875,-55.22
1603462637.6875,-58.35
1603462637.703125,-59.21
1603462637.71875,-57.09
1603462637.734375,-51.79
1603462637.75,-43.55
1603462637.765625,-33.07
1603462637.78125,-21.32
1603462637.796875,-9.37
1603462637.8125,1.82
1603462637.828125,11.52
1603462637.84375,19.25
1603462637.859375,24.80
1603462637.875,28.11
1603462637.890625,29.29
1603462637.90625,28.56
1603462637.921875,26.26
1603462637.9375,22.91
1603462637.953125,19.17
1603462637.96875,15.74
1603462637.984375,13.25
1603462638.0,12.05
1603462638.015625,12.22
1603462638.03125,13.54
1603462638.046875,15.64
1603462638.0625,18.12
1603462638.078125,20.70
1603462638.09375,23.16
1603462638.109375,25.36
1603462638.125,27.12
1603462638.140625,28.22
1603462638.15625,28.47
1603462638.171875,27.74
1603462638.1875,26.07
1603462638.203125,23.68
1603462638.21875,20.91
1603462638.234375,18.07
1603462638.25,15.41
1603462638.265625,13.03
1603462638.28125,10.90
1603462638.296875,8.95
1603462638.3125,7.04
1603462638.328125,5.08
1603462638.34375,2.98
1603462638.359375,0.76
1603462638.375,-1.52
1603462638.390625,-3.73
1603462638.40625,-5.76
1603462638.421875,-7.58
1603462638.4375,-9.30
1603462638.453125,-11.11
1603462638.46875,-13.22
1603462638.484375,-15.71
1603462638.5,-18.53
1603462638.515625,-21.49
1603462638.53125,-24.39
1603462638.546875,-27.09
1603462638.5625,-29.59
1603462638.578125,-31.97
1603462638.59375,-34.46
1603462638.609375,-37.29
1603462638.625,-40.72
1603462638.640625,-44.91
1603462638.65625,-49.81
1603462638.671875,-55.04
1603462638.6875,-59.81
1603462638.703125,-63.05
1603462638.71875,-63.64
1603462638.734375,-60.79
1603462638.75,-54.22
1603462638.765625,-44.35
1603462638.78125,-32.15
1603462638.796875,-18.92
1603462638.8125,-5.97
1603462638.828125,5.62
1603462638.84375,15.11
1603462638.859375,22.19
1603462638.875,26.89
1603462638.890625,29.46
1603462638.90625,30.31
1603462638.921875,29.88
1603462638.9375,28.55
1603462638.953125,26.70
1603462638.96875,24.64
1603462638.984375,22.62
1603462639.0,20.89
1603462639.015625,19.63
1603462639.03125,19.02
1603462639.046875,19.16
1603462639.0625,20.08
1603462639.078125,21.76
1603462639.09375,24.03
1603462639.109375,26.59
1603462639.125,29.02
1603462639.140625,30.86
1603462639.15625,31.70
1603462639.171875,31.35
1603462639.1875,29.88
1603462639.203125,27.62
1603462639.21875,25.01
1603462639.234375,22.48
1603462639.25,20.28
1603462639.265625,18.47
1603462639.28125,16.97
1603462639.296875,15.56
1603462639.3125,14.04
1603462639.328125,12.26
1603462639.34375,10.18
1603462639.359375,7.82
1603462639.375,5.31
1603462639.390625,2.79
1603462639.40625,0.38
1603462639.421875,-1.87
1603462639.4375,-4.04
1603462639.453125,-6.28
1603462639.46875,-8.76
1603462639.484375,-11.53
1603462639.5,-14.52
1603462639.515625,-17.55
1603462639.53125,-20.41
1603462639.546875,-22.98
1603462639.5625,-25.30
1603462639.578125,-27.54
1603462639.59375,-30.02
1603462639.609375,-33.10
1603462639.625,-37.02
1603462639.640625,-41.86
1603462639.65625,-47.28
1603462639.671875,-52.52
1603462639.6875,-56.44
1603462639.703125,-57.78
1603462639.71875,-55.56
1603462639.734375,-49.39
1603462639.75,-39.70
1603462639.765625,-27.54
1603462639.78125,-14.37
1603462639.796875,-1.55
1603462639.8125,9.89
1603462639.828125,19.40
1603462639.84375,26.81
1603462639.859375,32.20
1603462639.875,35.67
1603462639.890625,37.39
1603462639.90625,37.53
1603462639.921875,36.35
1603462639.9375,34.25
1603462639.953125,31.71
1603462639.96875,29.24
1603462639.984375,27.26
1603462640.0,26.00
1603462640.015625,25.57
1603462640.03125,25.92
1603462640.046875,26.99
1603462640.0625,28.66
1603462640.078125,30.79
1603462640.09375,33.13
1603462640.109375,35.29
1603462640.125,36.80
1603462640.140625,37.20
1603462640.15625,36.23
1603462640.171875,33.96
1603462640.1875,30.75
1603462640.203125,27.16
1603462640.21875,23.70
1603462640.234375,20.69
1603462640.25,18.19
1603462640.265625,16.03
1603462640.28125,13.98
1603462640.296875,11.83
1603462640.3125,9.50
1603462640.328125,7.05
1603462640.34375,4.64
1603462640.359375,2.47
1603462640.375,0.68
1603462640.390625,-0.72
1603462640.40625,-1.85
1603462640.421875,-3.02
1603462640.4375,-4.51
1603462640.453125,-6.53
1603462640.46875,-9.07
1603462640.484375,-11.91
1603462640.5,-14.76
1603462640.515625,-17.38
1603462640.53125,-19.68
1603462640.546875,-21.78
1603462640.5625,-23.92
1603462640.578125,-26.41
1603462640.59375,-29.50
1603462640.609375,-33.32
1603462640.625,-37.75
1603462640.640625,-42.36
1603462640.65625,-46.37
1603462640.671875,-48.75
1603462640.6875,-48.53
1603462640.703125,-45.07
1603462640.71875,-38.32
1603462640.734375,-28.82
1603462640.75,-17.56
1603462640.765625,-5.70
1603462640.78125,5.70
1603462640.796875,15.78
1603462640.8125,23.96
1603462640.828125,29.92
1603462640.84375,33.59
1603462640.859375,35.10
1603462640.875,34.78
1603462640.890625,33.04
1603462640.90625,30.36
1603462640.921875,27.19
1603462640.9375,24.03
1603462640.953125,21.33
1603462640.96875,19.48
1603462640.984375,18.71
1603462641.0,19.00
1603462641.015625,20.17
1603462641.03125,21.86
1603462641.046875,23.75
1603462641.0625,25.59
1603462641.078125,27.23
1603462641.09375,28.53
1603462641.109375,29.33
1603462641.125,29.45
1603462641.140625,28.74
1603462641.15625,27.21
1603462641.171875,25.05
1603462641.1875,22.58
1603462641.203125,20.09
1603462641.21875,17.80
1603462641.234375,15.71
1603462641.25,13.68
1603462641.265625,11.53
1603462641.28125,9.17
1603462641.296875,6.59
1603462641.3125,3.95
1603462641.328125,1.38
1603462641.34375,-0.99
1603462641.359375,-3.16
1603462641.375,-5.19
1603462641.390625,-7.17
1603462641.40625,-9.18
1603462641.421875,-11.24
1603462641.4375,-13.32
1603462641.453125,-15.39
1603462641.46875,-17.45
1603462641.484375,-19.53
1603462641.5,-21.70
1603462641.515625,-24.08
1603462641.53125,-26.83
1603462641.546875,-30.10
1603462641.5625,-34.02
1603462641.578125,-38.54
1603462641.59375,-43.36
1603462641.609375,-47.87
1603462641.625,-51.17
1603462641.640625,-52.27
1603462641.65625,-50.38
1603462641.671875,-45.13
1603462641.6875,-36.75
1603462641.703125,-26.02
1603462641.71875,-14.10
1603462641.734375,-2.18
1603462641.75,8.70
1603462641.765625,17.88
1603462641.78125,25.02
1603462641.796875,30.05
1603462641.8125,32.99
1603462641.828125,33.92
1603462641.84375,32.99
1603462641.859375,30.47
1603462641.875,26.90
1603462641.890625,22.96
1603462641.90625,19.40
1603462641.921875,16.77
1603462641.9375,15.32
1603462641.953125,14.98
1603462641.96875,15.48
1603462641.984375,16.51
1603462642.0,17.85
1603462642.015625,19.41
1603462642.03125,21.07
1603462642.046875,22.66
1603462642.0625,23.90
1603462642.078125,24.48
1603462642.09375,24.21
1603462642.109375,23.11
1603462642.125,21.37
1603462642.140625,19.26
1603462642.15625,17.01
1603462642.171875,14.75
1603462642.1875,12.47
1603462642.203125,10.15
1603462642.21875,7.76
1603462642.234375,5.32
1603462642.25,2.94
1603462642.265625,0.67
1603462642.28125,-1.41
1603462642.296875,-3.35
1603462642.3125,-5.22
1603462642.328125,-7.13
1603462642.34375,-9.16
1603462642.359375,-11.37
1603462642.375,-13.77
1603462642.390625,-16.30
1603462642.40625,-18.87
1603462642.421875,-21.33
1603462642.4375,-23.58
1603462642.453125,-25.57
1603462642.46875,-27.40
1603462642.484375,-29.32
1603462642.5,-31.68
1603462642.515625,-34.77
1603462642.53125,-38.64
1603462642.546875,-42.89
1603462642.5625,-46.67
1603462642.578125,-48.89
1603462642.59375,-48.54
1603462642.609375,-45.02
1603462642.625,-38.35
1603462642.640625,-29.21
1603462642.65625,-18.66
1603462642.671875,-7.84
1603462642.6875,2.27
1603462642.703125,11.02
1603462642.71875,18.09
1603462642.734375,23.37
1603462642.75,26.86
1603462642.765625,28.58
1603462642.78125,28.61
1603462642.796875,27.11
1603462642.8125,24.40
1603462642.828125,20.96
1603462642.84375,17.37
1603462642.859375,14.21
1603462642.875,11.93
1603462642.890625,10.77
1603462642.90625,10.75
1603462642.921875,11.71
1603462642.9375,13.37
1603462642.953125,15.48
1603462642.96875,17.74
1603462642.984375,19.88
1603462643.0,21.60
1603462643.015625,22.64
1603462643.03125,22.81
1603462643.046875,22.02
1603462643.0625,20.39
1603462643.078125,18.08
1603462643.09375,15.34
1603462643.109375,12.42
1603462643.125,9.47
1603462643.140625,6.62
1603462643.15625,3.92
1603462643.171875,1.40
1603462643.1875,-0.96
1603462643.203125,-3.18
1603462643.21875,-5.30
1603462643.234375,-7.38
1603462643.25,-9.48
1603462643.265625,-11.60
1603462643.28125,-13.72
1603462643.296875,-15.79
1603462643.3125,-17.74
1603462643.328125,-19.59
1603462643.34375,-21.40
1603462643.359375,-23.34
1603462643.375,-25.62
1603462643.390625,-28.45
1603462643.40625,-31.95
1603462643.421875,-36.08
1603462643.4375,-40.56
1603462643.453125,-44.89
1603462643.46875,-48.39
1603462643.484375,-50.27
1603462643.5,-49.82
1603462643.515625,-46.59
1603462643.53125,-40.51
1603462643.546875,-31.96
1603462643.5625,-21.73
1603462643.578125,-10.81
1603462643.59375,-0.21
1603462643.609375,9.26
1603462643.625,17.04
1603462643.640625,22.84
1603462643.65625,26.55
1603462643.671875,28.23
1603462643.6875,28.04
1603462643.703125,26.24
1603462643.71875,23.26
1603462643.734375,19.59
1603462643.75,15.78
1603462643.765625,12.36
1603462643.78125,9.78
1603462643.796875,8.32
1603462643.8125,8.09
1603462643.828125,9.04
1603462643.84375,10.94
1603462643.859375,13.48
1603462643.875,16.25
1603462643.890625,18.86
1603462643.90625,20.94
1603462643.921875,22.20
1603462643.9375,22.41
1603462643.953125,21.47
1603462643.96875,19.38
1603462643.984375,16.33
1603462644.0,12.67
1603462644.015625,8.85
1603462644.03125,5.26
1603462644.046875,2.17
1603462644.0625,-0.43
1603462644.078125,-2.70
1603462644.09375,-4.92
1603462644.109375,-7.29
1603462644.125,-9.91
1603462644.140625,-12.74
1603462644.15625,-15.66
1603462644.171875,-18.52
1603462644.1875,-21.21
1603462644.203125,-23.68
1603462644.21875,-26.00
1603462644.234375,-28.36
1603462644.25,-31.02
1603462644.265625,-34.20
1603462644.28125,-37.86
