Time_stamp,Value
-37.0,-0.00
-36.984375,-0.00
-36.96875,-0.00
-36.953125,-0.00
-36.9375,-0.00
-36.921875,-0.00
-36.90625,-0.00
-36.890625,-0.00
-36.875,-0.00
-36.859375,-0.00
-36.84375,0.00
-36.828125,0.01
-36.8125,0.01
-36.796875,-0.00
-36.78125,-0.03
-36.765625,-0.05
-36.75,-0.05
-36.734375,0.00
-36.71875,0.13
-36.703125,0.36
-36.6875,0.66
-36.671875,1.01
-36.65625,1.37
-36.640625,1.72
-36.625,2.06
-36.609375,2.40
-36.59375,2.79
-36.578125,3.24
-36.5625,3.80
-36.546875,4.42
-36.53125,5.06
-36.515625,5.66
-36.5,6.20
-36.484375,6.68
-36.46875,7.15
-36.453125,7.68
-36.4375,8.31
-36.421875,9.14
-36.40625,10.09
-36.390625,11.04
-36.375,11.88
-36.359375,12.56
-36.34375,13.14
-36.328125,13.76
-36.3125,14.65
-36.296875,15.96
-36.28125,17.91
-36.265625,20.32
-36.25,22.90
-36.234375,25.38
-36.21875,27.58
-36.203125,29.57
-36.1875,31.68
-36.171875,34.32
-36.15625,37.81
-36.140625,42.54
-36.125,48.15
-36.109375,54.10
-36.09375,59.83
-36.078125,64.97
-36.0625,69.58
-36.046875,74.14
-36.03125,79.34
-36.015625,85.71
-36.0,93.76
-35.984375,103.00
-35.96875,112.62
-35.953125,121.73
-35.9375,129.77
-35.921875,136.75
-35.90625,143.30
-35.890625,150.75
-35.875,157.77
-35.859375,166.64
-35.84375,177.95
-35.828125,191.79
-35.8125,206.97
-35.796875,220.57
-35.78125,228.25
-35.765625,225.36
-35.75,208.53
-35.734375,176.87
-35.71875,132.76
-35.703125,80.05
-35.6875,23.07
-35.671875,-34.94
-35.65625,-92.44
-35.640625,-149.16
-35.625,-205.23
-35.609375,-260.37
-35.59375,-313.74
-35.578125,-363.87
-35.5625,-409.83
-35.546875,-450.91
-35.53125,-486.50
-35.515625,-515.74
-35.5,-537.23
-35.484375,-549.22
-35.46875,-549.96
-35.453125,-538.37
-35.4375,-514.21
-35.421875,-478.67
-35.40625,-433.88
-35.390625,-382.45
-35.375,-327.02
-35.359375,-269.84
-35.34375,-212.63
-35.328125,-156.66
-35.3125,-102.95
-35.296875,-52.37
-35.28125,-5.90
-35.265625,35.58
-35.25,71.43
-35.234375,101.35
-35.21875,125.50
-35.203125,144.38
-35.1875,158.69
-35.171875,169.15
-35.15625,176.37
-35.140625,180.75
-35.125,182.58
-35.109375,182.09
-35.09375,179.54
-35.078125,175.26
-35.0625,169.65
-35.046875,163.11
-35.03125,156.00
-35.015625,148.57
-35.0,140.99
-34.984375,133.34
-34.96875,125.67
-34.953125,118.00
-34.9375,110.36
-34.921875,102.81
-34.90625,95.41
-34.890625,88.20
-34.875,81.26
-34.859375,74.61
-34.84375,68.30
-34.828125,62.32
-34.8125,56.65
-34.796875,51.27
-34.78125,46.13
-34.765625,41.23
-34.75,36.58
-34.734375,32.24
-34.71875,28.25
-34.703125,24.67
-34.6875,21.46
-34.671875,18.56
-34.65625,15.84
-34.640625,13.19
-34.625,10.58
-34.609375,8.05
-34.59375,5.75
-34.578125,3.83
-34.5625,2.39
-34.546875,1.39
-34.53125,0.65
-34.515625,-0.10
-34.5,-1.09
-34.484375,-2.42
-34.46875,-4.00
-34.453125,-5.54
-34.4375,-6.73
-34.421875,-7.35
-34.40625,-7.44
-34.390625,-7.29
-34.375,-7.33
-34.359375,-7.94
-34.34375,-9.25
-34.328125,-11.07
-34.3125,-12.96
-34.296875,-14.44
-34.28125,-15.20
-34.265625,-15.26
-34.25,-14.94
-34.234375,-14.72
-34.21875,-14.98
-34.203125,-16.01
-34.1875,-17.97
-34.171875,-20.89
-34.15625,-24.45
-34.140625,-27.80
-34.125,-29.52
-34.109375,-27.99
-34.09375,-22.09
-34.078125,-11.94
-34.0625,0.92
-34.046875,13.93
-34.03125,24.55
-34.015625,31.22
-34.0,33.84
-33.984375,33.50
-33.96875,31.64
-33.953125,29.34
-33.9375,26.97
-33.921875,24.45
-33.90625,21.72
-33.890625,19.03
-33.875,16.91
-33.859375,15.78
-33.84375,15.60
-33.828125,15.85
-33.8125,15.74
-33.796875,14.62
-33.78125,12.29
-33.765625,9.21
-33.75,6.26
-33.734375,4.44
-33.71875,4.45
-33.703125,6.45
-33.6875,10.02
-33.671875,14.24
-33.65625,18.10
-33.640625,20.80
-33.625,21.94
-33.609375,21.58
-33.59375,20.09
-33.578125,17.96
-33.5625,15.59
-33.546875,13.28
-33.53125,11.14
-33.515625,9.23
-33.5,7.64
-33.484375,6.54
-33.46875,6.16
-33.453125,6.71
-33.4375,8.25
-33.421875,10.57
-33.40625,13.25
-33.390625,15.79
-33.375,17.67
-33.359375,18.61
-33.34375,18.47
-33.328125,17.25
-33.3125,15.06
-33.296875,12.07
-33.28125,8.34
-33.265625,4.06
-33.25,-0.45
-33.234375,-4.83
-33.21875,-8.78
-33.203125,-12.14
-33.1875,-14.85
-33.171875,-16.99
-33.15625,-18.63
-33.140625,-19.82
-33.125,-20.56
-33.109375,-20.85
-33.09375,-20.68
-33.078125,-20.12
-33.0625,-19.21
-33.046875,-18.08
-33.03125,-16.84
-33.015625,-15.63
-33.0,-14.66
-32.984375,-14.07
-32.96875,-13.94
-32.953125,-14.18
-32.9375,-14.48
-32.921875,-14.37
-32.90625,-13.31
-32.890625,-10.94
-32.875,-7.23
-32.859375,-2.51
-32.84375,2.53
-32.828125,7.07
-32.8125,10.41
-32.796875,12.13
-32.78125,12.19
-32.765625,10.88
-32.75,8.67
-32.734375,6.03
-32.71875,3.30
-32.703125,0.71
-32.6875,-1.59
-32.671875,-3.43
-32.65625,-4.63
-32.640625,-5.03
-32.625,-4.55
-32.609375,-3.31
-32.59375,-1.58
-32.578125,0.28
-32.5625,1.95
-32.546875,3.29
-32.53125,4.34
-32.515625,5.19
-32.5,5.84
-32.484375,6.21
-32.46875,6.11
-32.453125,5.41
-32.4375,4.12
-32.421875,2.40
-32.40625,0.54
-32.390625,-1.17
-32.375,-2.53
-32.359375,-3.50
-32.34375,-4.20
-32.328125,-4.85
-32.3125,-5.69
-32.296875,-6.69
-32.28125,-7.84
-32.265625,-9.11
-32.25,-10.42
-32.234375,-11.71
-32.21875,-12.93
-32.203125,-14.10
-32.1875,-15.30
-32.171875,-16.68
-32.15625,-18.39
-32.140625,-20.57
-32.125,-23.21
-32.109375,-26.05
-32.09375,-28.57
-32.078125,-30.01
-32.0625,-29.58
-32.046875,-26.65
-32.03125,-21.00
-32.015625,-12.92
-32.0,-3.20
-31.984375,7.05
-31.96875,16.69
-31.953125,24.76
-31.9375,30.66
-31.921875,34.19
-31.90625,35.45
-31.890625,34.74
-31.875,32.45
-31.859375,28.93
-31.84375,24.61
-31.828125,19.95
-31.8125,15.49
-31.796875,11.82
-31.78125,9.37
-31.765625,8.36
-31.75,8.67
-31.734375,9.91
-31.71875,11.57
-31.703125,13.25
-31.6875,14.70
-31.671875,15.83
-31.65625,16.59
-31.640625,16.88
-31.625,16.53
-31.609375,15.40
-31.59375,13.49
-31.578125,10.97
-31.5625,8.15
-31.546875,5.37
-31.53125,2.86
-31.515625,0.71
-31.5,-1.17
-31.484375,-2.97
-31.46875,-4.87
-31.453125,-7.00
-31.4375,-9.35
-31.421875,-11.79
-31.40625,-14.09
-31.390625,-16.05
-31.375,-17.61
-31.359375,-18.94
-31.34375,-20.34
-31.328125,-22.19
-31.3125,-24.66
-31.296875,-27.68
-31.28125,-30.89
-31.265625,-33.73
-31.25,-35.54
-31.234375,-35.72
-31.21875,-33.81
-31.203125,-29.59
-31.1875,-23.13
-31.171875,-14.85
-31.15625,-5.50
-31.140625,3.96
-31.125,12.55
-31.109375,19.54
-31.09375,24.53
-31.078125,27.45
-31.0625,28.46
-31.046875,27.81
-31.03125,25.78
-31.015625,22.68
-31.0,18.87
-30.984375,14.86
-30.96875,11.20
-30.953125,8.39
-30.9375,6.78
-30.921875,6.47
-30.90625,7.28
-30.890625,8.88
-30.875,10.87
-30.859375,12.90
-30.84375,14.69
-30.828125,15.99
-30.8125,16.61
-30.796875,16.39
-30.78125,15.28
-30.765625,13.39
-30.75,10.92
-30.734375,8.19
-30.71875,5.51
-30.703125,3.06
-30.6875,0.93
-30.671875,-0.97
-30.65625,-2.76
-30.640625,-4.55
-30.625,-6.41
-30.609375,-8.30
-30.59375,-10.15
-30.578125,-11.86
-30.5625,-13.40
-30.546875,-14.83
-30.53125,-16.31
-30.515625,-18.09
-30.5,-20.39
-30.484375,-23.35
-30.46875,-26.88
-30.453125,-30.57
-30.4375,-33.76
-30.421875,-35.60
-30.40625,-35.34
-30.390625,-32.49
-30.375,-27.05
-30.359375,-19.48
-30.34375,-10.60
-30.328125,-1.37
-30.3125,7.34
-30.296875,14.85
-30.28125,20.70
-30.265625,24.60
-30.25,26.44
-30.234375,26.28
-30.21875,24.37
-30.203125,21.15
-30.1875,17.25
-30.171875,13.35
-30.15625,10.07
-30.140625,7.83
-30.125,6.83
-30.109375,6.97
-30.09375,8.01
-30.078125,9.60
-30.0625,11.44
-30.046875,13.30
-30.03125,15.02
-30.015625,16.47
-30.0,17.46
-29.984375,17.76
-29.96875,17.16
-29.953125,15.61
-29.9375,13.22
-29.921875,10.32
-29.90625,7.28
-29.890625,4.47
-29.875,2.05
-29.859375,-0.00
-29.84375,-1.88
-29.828125,-3.81
-29.8125,-5.95
-29.796875,-8.32
-29.78125,-10.85
-29.765625,-13.41
-29.75,-15.89
-29.734375,-18.27
-29.71875,-20.51
-29.703125,-22.63
-29.6875,-24.68
-29.671875,-26.77
-29.65625,-29.13
-29.640625,-32.01
-29.625,-35.52
-29.609375,-39.44
-29.59375,-43.07
-29.578125,-45.36
-29.5625,-45.18
-29.546875,-41.79
-29.53125,-35.10
-29.515625,-25.78
-29.5,-14.98
-29.484375,-3.99
-29.46875,6.11
-29.453125,14.64
-29.4375,21.33
-29.421875,26.09
-29.40625,28.96
-29.390625,30.02
-29.375,29.43
-29.359375,27.49
-29.34375,24.61
-29.328125,21.36
-29.3125,18.28
-29.296875,15.81
-29.28125,14.23
-29.265625,13.61
-29.25,13.84
-29.234375,14.70
-29.21875,15.93
-29.203125,17.27
-29.1875,18.58
-29.171875,19.75
-29.15625,20.66
-29.140625,21.15
-29.125,21.02
-29.109375,20.12
-29.09375,18.38
-29.078125,15.93
-29.0625,13.00
-29.046875,9.90
-29.03125,6.90
-29.015625,4.14
-29.0,1.68
-28.984375,-0.48
-28.96875,-2.44
-28.953125,-4.32
-28.9375,-6.26
-28.921875,-8.38
-28.90625,-10.76
-28.890625,-13.36
-28.875,-16.04
-28.859375,-18.64
-28.84375,-21.00
-28.828125,-23.10
-28.8125,-25.06
-28.796875,-27.19
-28.78125,-29.78
-28.765625,-33.04
-28.75,-36.91
-28.734375,-40.92
-28.71875,-44.27
-28.703125,-45.98
-28.6875,-45.15
-28.671875,-41.31
-28.65625,-34.54
-28.640625,-25.46
-28.625,-15.13
-28.609375,-4.70
-28.59375,4.82
-28.578125,12.73
-28.5625,18.70
-28.546875,22.67
-28.53125,24.70
-28.515625,24.94
-28.5,23.62
-28.484375,21.13
-28.46875,17.99
-28.453125,14.86
-28.4375,12.37
-28.421875,10.92
-28.40625,10.65
-28.390625,11.37
-28.375,12.74
-28.359375,14.40
-28.34375,16.12
-28.328125,17.79
-28.3125,19.36
-28.296875,20.77
-28.28125,21.81
-28.265625,22.21
-28.25,21.66
-28.234375,20.02
-28.21875,17.38
-28.203125,14.11
-28.1875,10.74
-28.171875,7.76
-28.15625,5.42
-28.140625,3.66
-28.125,2.15
-28.109375,0.48
-28.09375,-1.69
-28.078125,-4.42
-28.0625,-7.56
-28.046875,-10.81
-28.03125,-13.83
-28.015625,-16.40
-28.0,-18.45
-27.984375,-20.08
-27.96875,-21.54
-27.953125,-23.18
-27.9375,-25.40
-27.921875,-28.51
-27.90625,-32.56
-27.890625,-37.25
-27.875,-41.82
-27.859375,-45.20
-27.84375,-46.29
-27.828125,-44.28
-27.8125,-38.96
-27.796875,-30.75
-27.78125,-20.63
-27.765625,-9.80
-27.75,0.60
-27.734375,9.72
-27.71875,17.05
-27.703125,22.38
-27.6875,25.72
-27.671875,27.19
-27.65625,27.05
-27.640625,25.62
-27.625,23.37
-27.609375,20.75
-27.59375,18.25
-27.578125,16.25
-27.5625,15.03
-27.546875,14.71
-27.53125,15.25
-27.515625,16.48
-27.5,18.12
-27.484375,19.91
-27.46875,21.64
-27.453125,23.16
-27.4375,24.36
-27.421875,25.17
-27.40625,25.46
-27.390625,25.12
-27.375,24.04
-27.359375,22.22
-27.34375,19.73
-27.328125,16.73
-27.3125,13.40
-27.296875,9.94
-27.28125,6.58
-27.265625,3.47
-27.25,0.75
-27.234375,-1.59
-27.21875,-3.65
-27.203125,-5.63
-27.1875,-7.71
-27.171875,-9.96
-27.15625,-12.27
-27.140625,-14.39
-27.125,-16.17
-27.109375,-17.57
-27.09375,-18.84
-27.078125,-20.36
-27.0625,-22.52
-27.046875,-25.57
-27.03125,-29.45
-27.015625,-33.79
-27.0,-37.91
-26.984375,-40.92
-26.96875,-41.87
-26.953125,-40.00
-26.9375,-34.98
-26.921875,-27.02
-26.90625,-16.94
-26.890625,-5.98
-26.875,4.58
-26.859375,13.65
-26.84375,20.64
-26.828125,25.44
-26.8125,28.26
-26.796875,29.43
-26.78125,29.25
-26.765625,27.94
-26.75,25.76
-26.734375,23.03
-26.71875,20.24
-26.703125,17.85
-26.6875,16.27
-26.671875,15.65
-26.65625,15.92
-26.640625,16.84
-26.625,18.13
-26.609375,19.55
-26.59375,20.94
-26.578125,22.17
-26.5625,23.11
-26.546875,23.62
-26.53125,23.56
-26.515625,22.90
-26.5,21.67
-26.484375,19.97
-26.46875,17.85
-26.453125,15.40
-26.4375,12.67
-26.421875,9.81
-26.40625,7.01
-26.390625,4.48
-26.375,2.38
-26.359375,0.70
-26.34375,-0.71
-26.328125,-2.06
-26.3125,-3.56
-26.296875,-5.31
-26.28125,-7.30
-26.265625,-9.43
-26.25,-11.60
-26.234375,-13.70
-26.21875,-15.64
-26.203125,-17.38
-26.1875,-18.98
-26.171875,-20.56
-26.15625,-22.41
-26.140625,-24.82
-26.125,-28.00
-26.109375,-31.92
-26.09375,-36.22
-26.078125,-40.16
-26.0625,-42.79
-26.046875,-43.17
-26.03125,-40.62
-26.015625,-34.95
-26.0,-26.57
-25.984375,-16.40
-25.96875,-5.65
-25.953125,4.48
-25.9375,13.07
-25.921875,19.61
-25.90625,23.94
-25.890625,26.18
-25.875,26.59
-25.859375,25.49
-25.84375,23.26
-25.828125,20.30
-25.8125,17.10
-25.796875,14.15
-25.78125,11.84
-25.765625,10.47
-25.75,10.12
-25.734375,10.72
-25.71875,12.04
-25.703125,13.80
-25.6875,15.76
-25.671875,17.71
-25.65625,19.50
-25.640625,20.98
-25.625,21.96
-25.609375,22.26
-25.59375,21.74
-25.578125,20.40
-25.5625,18.40
-25.546875,16.03
-25.53125,13.57
-25.515625,11.22
-25.5,9.03
-25.484375,6.97
-25.46875,4.98
-25.453125,3.04
-25.4375,1.19
-25.421875,-0.58
-25.40625,-2.26
-25.390625,-3.91
-25.375,-5.63
-25.359375,-7.46
-25.34375,-9.41
-25.328125,-11.41
-25.3125,-13.40
-25.296875,-15.29
-25.28125,-17.10
-25.265625,-18.88
-25.25,-20.75
-25.234375,-22.89
-25.21875,-25.48
-25.203125,-28.64
-25.1875,-32.33
-25.171875,-36.22
-25.15625,-39.67
-25.140625,-41.81
-25.125,-41.73
-25.109375,-38.81
-25.09375,-32.95
-25.078125,-24.64
-25.0625,-14.89
-25.046875,-4.90
-25.03125,4.26
-25.015625,11.86
-25.0,17.61
-24.984375,21.57
-24.96875,23.93
-24.953125,24.90
-24.9375,24.62
-24.921875,23.24
-24.90625,20.94
-24.890625,18.05
-24.875,14.99
-24.859375,12.25
-24.84375,10.29
-24.828125,9.37
-24.8125,9.57
-24.796875,10.77
-24.78125,12.68
-24.765625,14.94
-24.75,17.20
-24.734375,19.07
-24.71875,20.32
-24.703125,20.78
-24.6875,20.44
-24.671875,19.38
-24.65625,17.72
-24.640625,15.63
-24.625,13.25
-24.609375,10.78
-24.59375,8.40
-24.578125,6.27
-24.5625,4.44
-24.546875,2.85
-24.53125,1.32
-24.515625,-0.36
-24.5,-2.32
-24.484375,-4.60
-24.46875,-7.05
-24.453125,-9.52
-24.4375,-11.81
-24.421875,-13.83
-24.40625,-15.54
-24.390625,-16.98
-24.375,-18.28
-24.359375,-19.67
-24.34375,-21.42
-24.328125,-23.81
-24.3125,-27.00
-24.296875,-30.91
-24.28125,-35.20
-24.265625,-39.22
-24.25,-42.17
-24.234375,-43.22
-24.21875,-41.74
-24.203125,-37.45
-24.1875,-30.57
-24.171875,-21.72
-24.15625,-11.83
-24.140625,-1.92
-24.125,7.14
-24.109375,14.72
-24.09375,20.50
-24.078125,24.37
-24.0625,26.41
-24.046875,26.75
-24.03125,25.67
-24.015625,23.47
-24.0,20.62
-23.984375,17.60
-23.96875,14.91
-23.953125,12.94
-23.9375,11.93
-23.921875,11.94
-23.90625,12.85
-23.890625,14.45
-23.875,16.47
-23.859375,18.64
-23.84375,20.71
-23.828125,22.45
-23.8125,23.66
-23.796875,24.18
-23.78125,23.99
-23.765625,23.13
-23.75,21.75
-23.734375,20.02
-23.71875,18.16
-23.703125,16.37
-23.6875,14.78
-23.671875,13.50
-23.65625,12.53
-23.640625,11.85
-23.625,11.30
-23.609375,10.74
-23.59375,10.04
-23.578125,9.15
-23.5625,8.14
-23.546875,7.15
-23.53125,6.33
-23.515625,5.77
-23.5,5.46
-23.484375,5.30
-23.46875,5.17
-23.453125,4.94
-23.4375,4.53
-23.421875,3.94
-23.40625,3.19
-23.390625,2.34
-23.375,1.40
-23.359375,0.41
-23.34375,-0.60
-23.328125,-1.60
-23.3125,-2.58
-23.296875,-3.59
-23.28125,-4.73
-23.265625,-6.11
-23.25,-7.78
-23.234375,-9.65
-23.21875,-11.52
-23.203125,-13.21
-23.1875,-14.63
-23.171875,-15.85
-23.15625,-17.10
-23.140625,-18.64
-23.125,-20.63
-23.109375,-23.05
-23.09375,-25.73
-23.078125,-28.43
-23.0625,-30.94
-23.046875,-33.16
-23.03125,-35.10
-23.015625,-36.89
-23.0,-38.75
-22.984375,-40.96
-22.96875,-43.76
-22.953125,-47.30
-22.9375,-51.45
-22.921875,-55.69
-22.90625,-59.14
-22.890625,-60.73
-22.875,-59.54
-22.859375,-55.05
-22.84375,-47.39
-22.828125,-37.25
-22.8125,-25.74
-22.796875,-14.05
-22.78125,-3.22
-22.765625,5.97
-22.75,13.09
-22.734375,17.98
-22.71875,20.70
-22.703125,21.48
-22.6875,20.69
-22.671875,18.75
-22.65625,16.14
-22.640625,13.30
-22.625,10.64
-22.609375,8.51
-22.59375,7.15
-22.578125,6.67
-22.5625,7.04
-22.546875,8.13
-22.53125,9.76
-22.515625,11.81
-22.5,14.17
-22.484375,16.71
-22.46875,19.23
-22.453125,21.42
-22.4375,22.89
-22.421875,23.28
-22.40625,22.38
-22.390625,20.26
-22.375,17.22
-22.359375,13.72
-22.34375,10.23
-22.328125,7.14
-22.3125,4.65
-22.296875,2.77
-22.28125,1.35
-22.265625,0.16
-22.25,-1.05
-22.234375,-2.49
-22.21875,-4.21
-22.203125,-6.19
-22.1875,-8.36
-22.171875,-10.59
-22.15625,-12.82
-22.140625,-15.06
-22.125,-17.37
-22.109375,-19.87
-22.09375,-22.70
-22.078125,-25.95
-22.0625,-29.55
-22.046875,-33.21
-22.03125,-36.37
-22.015625,-38.26
-22.0,-38.08
-21.984375,-35.29
-21.96875,-29.80
-21.953125,-22.11
-21.9375,-13.14
-21.921875,-3.95
-21.90625,4.53
-21.890625,11.74
-21.875,17.42
-21.859375,21.55
-21.84375,24.16
-21.828125,25.31
-21.8125,25.05
-21.796875,23.55
-21.78125,21.10
-21.765625,18.11
-21.75,15.04
-21.734375,12.33
-21.71875,10.38
-21.703125,9.44
-21.6875,9.66
-21.671875,10.94
-21.65625,13.03
-21.640625,15.47
-21.625,17.77
-21.609375,19.54
-21.59375,20.52
-21.578125,20.69
-21.5625,20.15
-21.546875,19.05
-21.53125,17.56
-21.515625,15.79
-21.5,13.78
-21.484375,11.57
-21.46875,9.17
-21.453125,6.61
-21.4375,3.88
-21.421875,1.02
-21.40625,-1.95
-21.390625,-4.95
-21.375,-7.89
-21.359375,-10.66
-21.34375,-13.22
-21.328125,-15.60
-21.3125,-17.99
-21.296875,-20.64
-21.28125,-23.82
-21.265625,-27.66
-21.25,-32.00
-21.234375,-36.33
-21.21875,-39.85
-21.203125,-41.69
-21.1875,-41.13
-21.171875,-37.89
-21.15625,-32.14
-21.140625,-24.55
-21.125,-16.04
-21.109375,-7.51
-21.09375,0.30
-21.078125,6.92
-21.0625,12.12
-21.046875,15.82
-21.03125,17.96
-21.015625,18.49
-21.0,17.47
-20.984375,15.10
-20.96875,11.80
-20.953125,8.22
-20.9375,5.02
-20.921875,2.82
-20.90625,1.98
-20.890625,2.58
-20.875,4.45
-20.859375,7.20
-20.84375,10.33
-20.828125,13.29
-20.8125,15.61
-20.796875,16.94
-20.78125,17.20
-20.765625,16.48
-20.75,15.08
-20.734375,13.28
-20.71875,11.28
-20.703125,9.15
-20.6875,6.81
-20.671875,4.21
-20.65625,1.43
-20.640625,-1.34
-20.625,-3.82
-20.609375,-5.87
-20.59375,-7.48
-20.578125,-8.88
-20.5625,-10.41
-20.546875,-12.38
-20.53125,-14.96
-20.515625,-18.16
-20.5,-21.80
-20.484375,-25.64
-20.46875,-29.31
-20.453125,-32.34
-20.4375,-34.17
-20.421875,-34.16
-20.40625,-31.75
-20.390625,-26.71
-20.375,-19.26
-20.359375,-10.10
-20.34375,-0.30
-20.328125,8.99
-20.3125,16.87
-20.296875,22.85
-20.28125,26.86
-20.265625,29.09
-20.25,29.77
-20.234375,29.08
-20.21875,27.14
-20.203125,24.10
-20.1875,20.31
-20.171875,16.36
-20.15625,12.99
-20.140625,10.86
-20.125,10.37
-20.109375,11.50
-20.09375,13.87
-20.078125,16.85
-20.0625,19.81
-20.046875,22.19
-20.03125,23.65
-20.015625,24.02
-20.0,23.28
-19.984375,21.57
-19.96875,19.11
-19.953125,16.21
-19.9375,13.17
-19.921875,10.18
-19.90625,7.33
-19.890625,4.58
-19.875,1.87
-19.859375,-0.80
-19.84375,-3.33
-19.828125,-5.60
-19.8125,-7.52
-19.796875,-9.18
-19.78125,-10.78
-19.765625,-12.64
-19.75,-15.11
-19.734375,-18.39
-19.71875,-22.53
-19.703125,-27.30
-19.6875,-32.18
-19.671875,-36.30
-19.65625,-38.66
-19.640625,-38.31
-19.625,-34.66
-19.609375,-27.75
-19.59375,-18.28
-19.578125,-7.44
-19.5625,3.39
-19.546875,13.05
-19.53125,20.82
-19.515625,26.42
-19.5,29.94
-19.484375,31.61
-19.46875,31.70
-19.453125,30.42
-19.4375,28.05
-19.421875,24.97
-19.40625,21.68
-19.390625,18.77
-19.375,16.77
-19.359375,16.00
-19.34375,16.52
-19.328125,18.12
-19.3125,20.41
-19.296875,22.95
-19.28125,25.30
-19.265625,27.12
-19.25,28.14
-19.234375,28.20
-19.21875,27.28
-19.203125,25.47
-19.1875,23.01
-19.171875,20.20
-19.15625,17.30
-19.140625,14.47
-19.125,11.72
-19.109375,8.98
-19.09375,6.14
-19.078125,3.18
-19.0625,0.20
-19.046875,-2.59
-19.03125,-5.01
-19.015625,-7.00
-19.0,-8.68
-18.984375,-10.31
-18.96875,-12.19
-18.953125,-14.58
-18.9375,-17.61
-18.921875,-21.25
-18.90625,-25.32
-18.890625,-29.48
-18.875,-33.13
-18.859375,-35.52
-18.84375,-35.82
-18.828125,-33.36
-18.8125,-27.94
-18.796875,-19.96
-18.78125,-10.37
-18.765625,-0.42
-18.75,8.71
-18.734375,16.20
-18.71875,21.71
-18.703125,25.26
-18.6875,27.11
-18.671875,27.47
-18.65625,26.51
-18.640625,24.36
-18.625,21.29
-18.609375,17.76
-18.59375,14.40
-18.578125,11.90
-18.5625,10.76
-18.546875,11.11
-18.53125,12.74
-18.515625,15.14
-18.5,17.74
-18.484375,20.06
-18.46875,21.83
-18.453125,22.95
-18.4375,23.41
-18.421875,23.21
-18.40625,22.34
-18.390625,20.79
-18.375,18.62
-18.359375,16.00
-18.34375,13.13
-18.328125,10.30
-18.3125,7.75
-18.296875,5.60
-18.28125,3.81
-18.265625,2.21
-18.25,0.60
-18.234375,-1.16
-18.21875,-3.11
-18.203125,-5.15
-18.1875,-7.16
-18.171875,-9.09
-18.15625,-10.95
-18.140625,-12.89
-18.125,-15.09
-18.109375,-17.72
-18.09375,-20.85
-18.078125,-24.43
-18.0625,-28.21
-18.046875,-31.67
-18.03125,-34.11
-18.015625,-34.75
-18.0,-32.94
-17.984375,-28.42
-17.96875,-21.43
-17.953125,-12.71
-17.9375,-3.28
-17.921875,5.77
-17.90625,13.54
-17.890625,19.48
-17.875,23.42
-17.859375,25.50
-17.84375,26.02
-17.828125,25.34
-17.8125,23.77
-17.796875,21.58
-17.78125,19.06
-17.765625,16.49
-17.75,14.25
-17.734375,12.69
-17.71875,12.05
-17.703125,12.38
-17.6875,13.53
-17.671875,15.21
-17.65625,17.09
-17.640625,18.84
-17.625,20.22
-17.609375,21.02
-17.59375,21.07
-17.578125,20.29
-17.5625,18.75
-17.546875,16.62
-17.53125,14.17
-17.515625,11.66
-17.5,9.26
-17.484375,7.02
-17.46875,4.95
-17.453125,3.05
-17.4375,1.33
-17.421875,-0.17
-17.40625,-1.45
-17.390625,-2.61
-17.375,-3.83
-17.359375,-5.28
-17.34375,-7.09
-17.328125,-9.24
-17.3125,-11.59
-17.296875,-13.92
-17.28125,-15.99
-17.265625,-17.70
-17.25,-19.07
-17.234375,-20.27
-17.21875,-21.57
-17.203125,-23.23
-17.1875,-25.44
-17.171875,-28.23
-17.15625,-31.38
-17.140625,-34.47
-17.125,-36.87
-17.109375,-37.88
-17.09375,-36.83
-17.078125,-33.33
-17.0625,-27.35
-17.046875,-19.35
-17.03125,-10.15
-17.015625,-0.78
-17.0,7.80
-16.984375,14.86
-16.96875,20.04
-16.953125,23.26
-16.9375,24.65
-16.921875,24.45
-16.90625,22.95
-16.890625,20.51
-16.875,17.58
-16.859375,14.62
-16.84375,12.09
-16.828125,10.35
-16.8125,9.53
-16.796875,9.57
-16.78125,10.27
-16.765625,11.35
-16.75,12.60
-16.734375,13.90
-16.71875,15.20
-16.703125,16.41
-16.6875,17.40
-16.671875,17.91
-16.65625,17.72
-16.640625,16.69
-16.625,14.89
-16.609375,12.58
-16.59375,10.08
-16.578125,7.69
-16.5625,5.52
-16.546875,3.54
-16.53125,1.70
-16.515625,-0.06
-16.5,-1.70
-16.484375,-3.18
-16.46875,-4.53
-16.453125,-5.87
-16.4375,-7.37
-16.421875,-9.17
-16.40625,-11.25
-16.390625,-13.48
-16.375,-15.64
-16.359375,-17.55
-16.34375,-19.13
-16.328125,-20.42
-16.3125,-21.53
-16.296875,-22.59
-16.28125,-23.79
-16.265625,-25.33
-16.25,-27.40
-16.234375,-30.10
-16.21875,-33.29
-16.203125,-36.58
-16.1875,-39.32
-16.171875,-40.74
-16.15625,-40.16
-16.140625,-37.20
-16.125,-31.87
-16.109375,-24.61
-16.09375,-16.18
-16.078125,-7.51
-16.0625,0.54
-16.046875,7.34
-16.03125,12.49
-16.015625,15.89
-16.0,17.61
-15.984375,17.83
-15.96875,16.78
-15.953125,14.67
-15.9375,11.82
-15.921875,8.64
-15.90625,5.65
-15.890625,3.38
-15.875,2.22
-15.859375,2.32
-15.84375,3.53
-15.828125,5.51
-15.8125,7.80
-15.796875,10.01
-15.78125,11.85
-15.765625,13.09
-15.75,13.59
-15.734375,13.25
-15.71875,12.04
-15.703125,10.07
-15.6875,7.62
-15.671875,5.09
-15.65625,2.85
-15.640625,1.15
-15.625,-0.01
-15.609375,-0.81
-15.59375,-1.52
-15.578125,-2.37
-15.5625,-3.48
-15.546875,-4.84
-15.53125,-6.38
-15.515625,-7.99
-15.5,-9.58
-15.484375,-11.12
-15.46875,-12.62
-15.453125,-14.13
-15.4375,-15.69
-15.421875,-17.34
-15.40625,-19.07
-15.390625,-20.83
-15.375,-22.59
-15.359375,-24.39
-15.34375,-26.40
-15.328125,-28.82
-15.3125,-31.83
-15.296875,-35.38
-15.28125,-39.07
-15.265625,-42.21
-15.25,-43.94
-15.234375,-43.48
-15.21875,-40.41
-15.203125,-34.78
-15.1875,-27.17
-15.171875,-18.48
-15.15625,-9.69
-15.140625,-1.64
-15.125,5.10
-15.109375,10.27
-15.09375,13.83
-15.078125,15.90
-15.0625,16.67
-15.046875,16.38
-15.03125,15.31
-15.015625,13.76
-15.0,12.05
-14.984375,10.47
-14.96875,9.22
-14.953125,8.45
-14.9375,8.21
-14.921875,8.48
-14.90625,9.19
-14.890625,10.23
-14.875,11.45
-14.859375,12.70
-14.84375,13.82
-14.828125,14.69
-14.8125,15.17
-14.796875,15.18
-14.78125,14.65
-14.765625,13.57
-14.75,12.03
-14.734375,10.19
-14.71875,8.28
-14.703125,6.55
-14.6875,5.15
-14.671875,4.10
-14.65625,3.23
-14.640625,2.30
-14.625,1.11
-14.609375,-0.40
-14.59375,-2.09
-14.578125,-3.76
-14.5625,-5.19
-14.546875,-6.38
-14.53125,-7.47
-14.515625,-8.74
-14.5,-10.40
-14.484375,-12.53
-14.46875,-15.01
-14.453125,-17.61
-14.4375,-20.12
-14.421875,-22.40
-14.40625,-24.46
-14.390625,-26.42
-14.375,-28.51
-14.359375,-30.98
-14.34375,-34.12
-14.328125,-38.00
-14.3125,-42.39
-14.296875,-46.63
-14.28125,-49.68
-14.265625,-50.40
-14.25,-47.94
-14.234375,-42.06
-14.21875,-33.29
-14.203125,-22.80
-14.1875,-11.99
-14.171875,-2.08
-14.15625,6.17
-14.140625,12.51
-14.125,17.06
-14.109375,20.05
-14.09375,21.69
-14.078125,22.18
-14.0625,21.72
-14.046875,20.57
-14.03125,19.09
-14.015625,17.66
-14.0,16.56
-13.984375,15.94
-13.96875,15.81
-13.953125,16.05
-13.9375,16.58
-13.921875,17.35
-13.90625,18.40
-13.890625,19.77
-13.875,21.42
-13.859375,23.16
-13.84375,24.70
-13.828125,25.66
-13.8125,25.75
-13.796875,24.87
-13.78125,23.14
-13.765625,20.90
-13.75,18.55
-13.734375,16.39
-13.71875,14.56
-13.703125,12.98
-13.6875,11.45
-13.671875,9.75
-13.65625,7.78
-13.640625,5.58
-13.625,3.36
-13.609375,1.36
-13.59375,-0.26
-13.578125,-1.52
-13.5625,-2.57
-13.546875,-3.68
-13.53125,-5.08
-13.515625,-6.89
-13.5,-9.15
-13.484375,-11.80
-13.46875,-14.72
-13.453125,-17.74
-13.4375,-20.66
-13.421875,-23.31
-13.40625,-25.66
-13.390625,-27.84
-13.375,-30.22
-13.359375,-33.23
-13.34375,-37.19
-13.328125,-42.06
-13.3125,-47.30
-13.296875,-51.93
-13.28125,-54.80
-13.265625,-54.83
-13.25,-51.40
-13.234375,-44.50
-13.21875,-34.75
-13.203125,-23.27
-13.1875,-11.37
-13.171875,-0.24
-13.15625,9.31
-13.140625,16.86
-13.125,22.38
-13.109375,26.01
-13.09375,27.92
-13.078125,28.30
-13.0625,27.37
-13.046875,25.45
-13.03125,23.02
-13.015625,20.65
-13.0,18.84
-12.984375,17.96
-12.96875,18.16
-12.953125,19.36
-12.9375,21.36
-12.921875,23.89
-12.90625,26.66
-12.890625,29.37
-12.875,31.77
-12.859375,33.63
-12.84375,34.81
-12.828125,35.24
-12.8125,34.89
-12.796875,33.82
-12.78125,32.11
-12.765625,29.90
-12.75,27.36
-12.734375,24.66
-12.71875,21.97
-12.703125,19.37
-12.6875,16.97
-12.671875,14.78
-12.65625,12.81
-12.640625,10.99
-12.625,9.24
-12.609375,7.46
-12.59375,5.58
-12.578125,3.63
-12.5625,1.70
-12.546875,-0.13
-12.53125,-1.87
-12.515625,-3.64
-12.5,-5.65
-12.484375,-8.05
-12.46875,-10.88
-12.453125,-13.99
-12.4375,-17.16
-12.421875,-20.16
-12.40625,-22.90
-12.390625,-25.39
-12.375,-27.78
-12.359375,-30.29
-12.34375,-33.17
-12.328125,-36.67
-12.3125,-40.98
-12.296875,-46.05
-12.28125,-51.47
-12.265625,-56.39
-12.25,-59.66
-12.234375,-60.12
-12.21875,-56.99
-12.203125,-50.12
-12.1875,-40.06
-12.171875,-27.92
-12.15625,-15.07
-12.140625,-2.79
-12.125,7.95
-12.109375,16.59
-12.09375,22.96
-12.078125,27.14
-12.0625,29.40
-12.046875,30.01
-12.03125,29.31
-12.015625,27.67
-12.0,25.50
-11.984375,23.27
-11.96875,21.44
-11.953125,20.34
-11.9375,20.18
-11.921875,20.99
-11.90625,22.66
-11.890625,25.06
-11.875,28.01
-11.859375,31.27
-11.84375,34.53
-11.828125,37.38
-11.8125,39.42
-11.796875,40.35
-11.78125,40.03
-11.765625,38.61
-11.75,36.36
-11.734375,33.65
-11.71875,30.81
-11.703125,28.10
-11.6875,25.64
-11.671875,23.44
-11.65625,21.41
-11.640625,19.42
-11.625,17.30
-11.609375,14.95
-11.59375,12.38
-11.578125,9.66
-11.5625,6.96
-11.546875,4.41
-11.53125,2.09
-11.515625,-0.07
-11.5,-2.21
-11.484375,-4.53
-11.46875,-7.19
-11.453125,-10.23
-11.4375,-13.56
-11.421875,-16.93
-11.40625,-20.05
-11.390625,-22.73
-11.375,-24.91
-11.359375,-26.74
-11.34375,-28.58
-11.328125,-30.87
-11.3125,-34.00
-11.296875,-38.17
-11.28125,-43.24
-11.265625,-48.64
-11.25,-53.47
-11.234375,-56.58
-11.21875,-56.89
-11.203125,-53.65
-11.1875,-46.72
-11.171875,-36.59
-11.15625,-24.35
-11.140625,-11.34
-11.125,1.15
-11.109375,12.07
-11.09375,20.79
-11.078125,26.98
-11.0625,30.64
-11.046875,31.96
-11.03125,31.35
-11.015625,29.35
-11.0,26.58
-10.984375,23.65
-10.96875,21.11
-10.953125,19.36
-10.9375,18.73
-10.921875,19.42
-10.90625,21.50
-10.890625,24.90
-10.875,29.31
-10.859375,34.26
-10.84375,39.21
-10.828125,43.69
-10.8125,47.32
-10.796875,49.84
-10.78125,51.03
-10.765625,50.74
-10.75,48.92
-10.734375,45.75
-10.71875,41.71
-10.703125,37.41
-10.6875,33.45
-10.671875,30.16
-10.65625,27.49
-10.640625,25.14
-10.625,22.64
-10.609375,19.68
-10.59375,16.15
-10.578125,12.21
-10.5625,8.16
-10.546875,4.35
-10.53125,1.00
-10.515625,-1.83
-10.5,-4.29
-10.484375,-6.69
-10.46875,-9.33
-10.453125,-12.37
-10.4375,-15.74
-10.421875,-19.11
-10.40625,-22.10
-10.390625,-24.45
-10.375,-26.19
-10.359375,-27.65
-10.34375,-29.39
-10.328125,-31.93
-10.3125,-35.65
-10.296875,-40.63
-10.28125,-46.57
-10.265625,-52.84
-10.25,-58.52
-10.234375,-62.53
-10.21875,-63.88
-10.203125,-61.88
-10.1875,-56.35
-10.171875,-47.71
-10.15625,-36.89
-10.140625,-25.08
-10.125,-13.48
-10.109375,-3.09
-10.09375,5.44
-10.078125,11.76
-10.0625,15.84
-10.046875,17.84
-10.03125,18.10
-10.015625,17.05
-10.0,15.13
-9.984375,12.80
-9.96875,10.47
-9.953125,8.51
-9.9375,7.19
-9.921875,6.74
-9.90625,7.27
-9.890625,8.77
-9.875,11.11
-9.859375,14.08
-9.84375,17.44
-9.828125,20.93
-9.8125,24.33
-9.796875,27.40
-9.78125,29.91
-9.765625,31.63
-9.75,32.38
-9.734375,32.08
-9.71875,30.74
-9.703125,28.57
-9.6875,25.79
-9.671875,22.72
-9.65625,19.61
-9.640625,16.62
-9.625,13.79
-9.609375,11.07
-9.59375,8.34
-9.578125,5.52
-9.5625,2.66
-9.546875,-0.10
-9.53125,-2.53
-9.515625,-4.48
-9.5,-5.99
-9.484375,-7.33
-9.46875,-8.87
-9.453125,-10.93
-9.4375,-13.60
-9.421875,-16.67
-9.40625,-19.73
-9.390625,-22.42
-9.375,-24.58
-9.359375,-26.35
-9.34375,-28.09
-9.328125,-30.27
-9.3125,-33.26
-9.296875,-37.21
-9.28125,-41.94
-9.265625,-46.93
-9.25,-51.31
-9.234375,-54.02
-9.21875,-54.06
-9.203125,-50.73
-9.1875,-43.94
-9.171875,-34.22
-9.15625,-22.62
-9.140625,-10.37
-9.125,1.34
-9.109375,11.63
-9.09375,19.95
-9.078125,26.04
-9.0625,29.84
-9.046875,31.48
-9.03125,31.23
-9.015625,29.50
-9.0,26.81
-8.984375,23.65
-8.96875,20.48
-8.953125,17.65
-8.9375,15.43
-8.921875,13.99
-8.90625,13.43
-8.890625,13.79
-8.875,15.04
-8.859375,17.07
-8.84375,19.70
-8.828125,22.67
-8.8125,25.66
-8.796875,28.29
-8.78125,30.21
-8.765625,31.10
-8.75,30.82
-8.734375,29.41
-8.71875,27.13
-8.703125,24.35
-8.6875,21.48
-8.671875,18.87
-8.65625,16.69
-8.640625,14.95
-8.625,13.53
-8.609375,12.22
-8.59375,10.82
-8.578125,9.22
-8.5625,7.40
-8.546875,5.39
-8.53125,3.15
-8.515625,0.54
-8.5,-2.68
-8.484375,-6.72
-8.46875,-11.61
-8.453125,-17.11
-8.4375,-22.78
-8.421875,-28.10
-8.40625,-32.74
-8.390625,-36.59
-8.375,-39.79
-8.359375,-42.56
-8.34375,-45.13
-8.328125,-47.70
-8.3125,-50.46
-8.296875,-53.57
-8.28125,-57.08
-8.265625,-60.70
-8.25,-63.73
-8.234375,-65.10
-8.21875,-63.70
-8.203125,-58.81
-8.1875,-50.42
-8.171875,-39.25
-8.15625,-26.52
-8.140625,-13.59
-8.125,-1.54
-8.109375,8.93
-8.09375,17.47
-8.078125,24.01
-8.0625,28.61
-8.046875,31.43
-8.03125,32.71
-8.015625,32.82
-8.0,32.19
-7.984375,31.25
-7.96875,30.38
-7.953125,29.83
-7.9375,29.76
-7.921875,30.20
-7.90625,31.12
-7.890625,32.40
-7.875,33.86
-7.859375,35.31
-7.84375,36.57
-7.828125,37.49
-7.8125,37.93
-7.796875,37.76
-7.78125,36.81
-7.765625,34.98
-7.75,32.19
-7.734375,28.51
-7.71875,24.13
-7.703125,19.33
-7.6875,14.39
-7.671875,9.53
-7.65625,4.82
-7.640625,0.30
-7.625,-3.98
-7.609375,-7.91
-7.59375,-11.32
-7.578125,-14.09
-7.5625,-16.27
-7.546875,-18.07
-7.53125,-19.78
-7.515625,-21.64
-7.5,-23.79
-7.484375,-26.18
-7.46875,-28.71
-7.453125,-31.24
-7.4375,-33.64
-7.421875,-35.71
-7.40625,-37.28
-7.390625,-38.20
-7.375,-38.50
-7.359375,-38.42
-7.34375,-38.41
-7.328125,-38.95
-7.3125,-40.40
-7.296875,-42.75
-7.28125,-45.57
-7.265625,-48.07
-7.25,-49.22
-7.234375,-48.02
-7.21875,-43.80
-7.203125,-36.37
-7.1875,-26.19
-7.171875,-14.22
-7.15625,-1.69
-7.140625,10.18
-7.125,20.54
-7.109375,28.98
-7.09375,35.49
-7.078125,40.27
-7.0625,43.57
-7.046875,45.56
-7.03125,46.35
-7.015625,46.03
-7.0,44.74
-6.984375,42.68
-6.96875,40.05
-6.953125,37.05
-6.9375,33.86
-6.921875,30.64
-6.90625,27.64
-6.890625,25.12
-6.875,23.38
-6.859375,22.61
-6.84375,22.78
-6.828125,23.63
-6.8125,24.65
-6.796875,25.26
-6.78125,24.99
-6.765625,23.57
-6.75,21.03
-6.734375,17.69
-6.71875,14.05
-6.703125,10.64
-6.6875,7.83
-6.671875,5.75
-6.65625,4.26
-6.640625,3.10
-6.625,2.06
-6.609375,1.08
-6.59375,0.30
-6.578125,-0.13
-6.5625,-0.17
-6.546875,-0.00
-6.53125,0.01
-6.515625,-0.49
-6.5,-1.71
-6.484375,-3.60
-6.46875,-5.91
-6.453125,-8.33
-6.4375,-10.60
-6.421875,-12.61
-6.40625,-14.39
-6.390625,-16.13
-6.375,-18.08
-6.359375,-20.55
-6.34375,-23.71
-6.328125,-27.51
-6.3125,-31.51
-6.296875,-34.89
-6.28125,-36.60
-6.265625,-35.73
-6.25,-31.75
-6.234375,-24.75
-6.21875,-15.43
-6.203125,-4.89
-6.1875,5.69
-6.171875,15.29
-6.15625,23.22
-6.140625,29.10
-6.125,32.78
-6.109375,34.31
-6.09375,33.82
-6.078125,31.61
-6.0625,28.08
-6.046875,23.76
-6.03125,19.19
-6.015625,14.92
-6.0,11.39
-5.984375,8.93
-5.96875,7.71
-5.953125,7.71
-5.9375,8.75
-5.921875,10.47
-5.90625,12.50
-5.890625,14.45
-5.875,16.05
-5.859375,17.17
-5.84375,17.68
-5.828125,17.53
-5.8125,16.64
-5.796875,14.96
-5.78125,12.57
-5.765625,9.66
-5.75,6.53
-5.734375,3.49
-5.71875,0.69
-5.703125,-1.86
-5.6875,-4.29
-5.671875,-6.73
-5.65625,-9.23
-5.640625,-11.77
-5.625,-14.26
-5.609375,-16.63
-5.59375,-18.88
-5.578125,-21.02
-5.5625,-23.08
-5.546875,-25.02
-5.53125,-26.82
-5.515625,-28.51
-5.5,-30.23
-5.484375,-32.21
-5.46875,-34.76
-5.453125,-38.10
-5.4375,-42.22
-5.421875,-46.74
-5.40625,-50.89
-5.390625,-53.61
-5.375,-53.84
-5.359375,-50.86
-5.34375,-44.53
-5.328125,-35.36
-5.3125,-24.40
-5.296875,-12.86
-5.28125,-1.82
-5.265625,7.99
-5.25,16.22
-5.234375,22.75
-5.21875,27.53
-5.203125,30.46
-5.1875,31.46
-5.171875,30.51
-5.15625,27.85
-5.140625,24.00
-5.125,19.70
-5.109375,15.77
-5.09375,12.86
-5.078125,11.25
-5.0625,10.87
-5.046875,11.39
-5.03125,12.43
-5.015625,13.68
-5.0,15.05
-4.984375,16.56
-4.96875,18.19
-4.953125,19.82
-4.9375,21.13
-4.921875,21.78
-4.90625,21.45
-4.890625,20.02
-4.875,17.59
-4.859375,14.45
-4.84375,10.97
-4.828125,7.51
-4.8125,4.28
-4.796875,1.35
-4.78125,-1.42
-4.765625,-4.24
-4.75,-7.36
-4.734375,-10.86
-4.71875,-14.66
-4.703125,-18.49
-4.6875,-22.06
-4.671875,-25.16
-4.65625,-27.82
-4.640625,-30.31
-4.625,-32.98
-4.609375,-36.19
-4.59375,-40.12
-4.578125,-44.77
-4.5625,-49.85
-4.546875,-54.77
-4.53125,-58.67
-4.515625,-60.51
-4.5,-59.36
-4.484375,-54.69
-4.46875,-46.61
-4.453125,-35.87
-4.4375,-23.69
-4.421875,-11.36
-4.40625,0.04
-4.390625,9.85
-4.375,17.76
-4.359375,23.62
-4.34375,27.41
-4.328125,29.10
-4.3125,28.85
-4.296875,27.00
-4.28125,24.09
-4.265625,20.75
-4.25,17.59
-4.234375,15.09
-4.21875,13.55
-4.203125,13.13
-4.1875,13.81
-4.171875,15.47
-4.15625,17.91
-4.140625,20.83
-4.125,23.89
-4.109375,26.75
-4.09375,29.02
-4.078125,30.37
-4.0625,30.52
-4.046875,29.38
-4.03125,27.01
-4.015625,23.69
-4.0,19.84
-3.984375,15.88
-3.96875,12.13
-3.953125,8.69
-3.9375,5.53
-3.921875,2.44
-3.90625,-0.77
-3.890625,-4.21
-3.875,-7.84
-3.859375,-11.52
-3.84375,-15.08
-3.828125,-18.41
-3.8125,-21.55
-3.796875,-24.67
-3.78125,-28.01
-3.765625,-31.76
-3.75,-36.02
-3.734375,-40.67
-3.71875,-45.45
-3.703125,-49.83
-3.6875,-53.12
-3.671875,-54.46
-3.65625,-53.01
-3.640625,-48.25
-3.625,-40.20
-3.609375,-29.49
-3.59375,-17.34
-3.578125,-5.11
-3.5625,6.00
-3.546875,15.27
-3.53125,22.48
-3.515625,27.72
-3.5,31.22
-3.484375,33.10
-3.46875,33.43
-3.453125,32.29
-3.4375,29.92
-3.421875,26.76
-3.40625,23.38
-3.390625,20.42
-3.375,18.38
-3.359375,17.52
-3.34375,17.89
-3.328125,19.32
-3.3125,21.52
-3.296875,24.13
-3.28125,26.81
-3.265625,29.21
-3.25,30.96
-3.234375,31.76
-3.21875,31.35
-3.203125,29.69
-3.1875,26.91
-3.171875,23.37
-3.15625,19.52
-3.140625,15.75
-3.125,12.33
-3.109375,9.23
-3.09375,6.27
-3.078125,3.23
-3.0625,-0.07
-3.046875,-3.59
-3.03125,-7.14
-3.015625,-10.46
-3.0,-13.35
-2.984375,-15.83
-2.96875,-18.07
-2.953125,-20.47
-2.9375,-23.44
-2.921875,-27.28
-2.90625,-32.00
-2.890625,-37.27
-2.875,-42.29
-2.859375,-46.03
-2.84375,-47.37
-2.828125,-45.47
-2.8125,-39.99
-2.796875,-31.27
-2.78125,-20.24
-2.765625,-8.18
-2.75,3.63
-2.734375,14.18
-2.71875,22.89
-2.703125,29.57
-2.6875,34.27
-2.671875,37.15
-2.65625,38.32
-2.640625,37.87
-2.625,35.94
-2.609375,32.77
-2.59375,28.84
-2.578125,24.80
-2.5625,21.39
-2.546875,19.20
-2.53125,18.57
-2.515625,19.41
-2.5,21.29
-2.484375,23.63
-2.46875,25.90
-2.453125,27.78
-2.4375,29.16
-2.421875,29.98
-2.40625,30.19
-2.390625,29.64
-2.375,28.17
-2.359375,25.74
-2.34375,22.51
-2.328125,18.84
-2.3125,15.07
-2.296875,11.45
-2.28125,8.07
-2.265625,4.86
-2.25,1.77
-2.234375,-1.18
-2.21875,-3.91
-2.203125,-6.31
-2.1875,-8.38
-2.171875,-10.24
-2.15625,-12.09
-2.140625,-14.14
-2.125,-16.60
-2.109375,-19.63
-2.09375,-23.41
-2.078125,-28.00
-2.0625,-33.33
-2.046875,-38.93
-2.03125,-43.96
-2.015625,-47.26
-2.0,-47.71
-1.984375,-44.59
-1.96875,-37.91
-1.953125,-28.46
-1.9375,-17.57
-1.921875,-6.69
-1.90625,2.99
-1.890625,10.76
-1.875,16.40
-1.859375,19.95
-1.84375,21.52
-1.828125,21.17
-1.8125,18.96
-1.796875,15.03
-1.78125,9.78
-1.765625,3.86
-1.75,-1.87
-1.734375,-6.51
-1.71875,-9.33
-1.703125,-9.95
-1.6875,-8.38
-1.671875,-5.03
-1.65625,-0.58
-1.640625,4.17
-1.625,8.53
-1.609375,12.04
-1.59375,14.53
-1.578125,16.08
-1.5625,16.88
-1.546875,17.11
-1.53125,16.89
-1.515625,16.29
-1.5,15.39
-1.484375,14.30
-1.46875,13.14
-1.453125,12.02
-1.4375,10.98
-1.421875,10.05
-1.40625,9.30
-1.390625,8.94
-1.375,9.19
-1.359375,10.24
-1.34375,12.00
-1.328125,14.08
-1.3125,15.90
-1.296875,16.83
-1.28125,16.46
-1.265625,14.66
-1.25,11.47
-1.234375,7.06
-1.21875,1.62
-1.203125,-4.55
-1.1875,-10.90
-1.171875,-16.62
-1.15625,-20.68
-1.140625,-22.14
-1.125,-20.44
-1.109375,-15.61
-1.09375,-8.23
-1.078125,0.76
-1.0625,10.23
-1.046875,19.05
-1.03125,26.14
-1.015625,30.50
-1.0,31.32
-0.984375,28.10
-0.96875,20.84
-0.953125,10.06
-0.9375,-3.19
-0.921875,-17.51
-0.90625,-31.27
-0.890625,-42.87
-0.875,-50.97
-0.859375,-54.72
-0.84375,-54.01
-0.828125,-49.50
-0.8125,-42.44
-0.796875,-34.23
-0.78125,-25.98
-0.765625,-18.18
-0.75,-10.74
-0.734375,-3.27
-0.71875,4.57
-0.703125,12.75
-0.6875,20.97
-0.671875,28.75
-0.65625,35.74
-0.640625,41.79
-0.625,46.90
-0.609375,51.16
-0.59375,54.58
-0.578125,57.16
-0.5625,58.91
-0.546875,59.85
-0.53125,59.96
-0.515625,59.11
-0.5,56.99
-0.484375,53.19
-0.46875,47.34
-0.453125,39.37
-0.4375,29.56
-0.421875,18.51
-0.40625,7.01
-0.390625,-4.25
-0.375,-14.84
-0.359375,-24.67
-0.34375,-34.00
-0.328125,-43.28
-0.3125,-52.87
-0.296875,-62.86
-0.28125,-72.84
-0.265625,-81.88
-0.25,-88.77
-0.234375,-92.28
-0.21875,-91.54
-0.203125,-86.34
-0.1875,-77.19
-0.171875,-65.20
-0.15625,-51.76
-0.140625,-38.27
-0.125,-25.87
-0.109375,-15.33
-0.09375,-7.02
-0.078125,-0.99
-0.0625,2.96
-0.046875,5.18
-0.03125,6.06
-0.015625,6.02
0.0,5.51
0.015625,4.98
0.03125,4.81
0.046875,5.29
0.0625,6.57
0.078125,8.58
0.09375,11.16
0.109375,14.10
0.125,17.22
0.140625,20.35
0.15625,23.33
0.171875,25.91
0.1875,27.75
0.203125,28.51
0.21875,27.89
0.234375,25.85
0.25,22.60
0.265625,18.55
0.28125,14.25
0.296875,10.18
0.3125,6.70
0.328125,4.03
0.34375,2.17
0.359375,0.96
0.375,0.05
0.390625,-0.93
0.40625,-2.35
0.421875,-4.37
0.4375,-6.94
0.453125,-9.83
0.46875,-12.72
0.484375,-15.40
0.5,-17.85
0.515625,-20.21
0.53125,-22.79
0.546875,-25.86
0.5625,-29.64
0.578125,-34.10
0.59375,-38.97
0.609375,-43.67
0.625,-47.37
0.640625,-49.13
0.65625,-48.17
0.671875,-44.04
0.6875,-36.85
0.703125,-27.18
0.71875,-16.00
0.734375,-4.43
0.75,6.51
0.765625,16.01
0.78125,23.54
0.796875,28.85
0.8125,31.95
0.828125,33.00
0.84375,32.36
0.859375,30.44
0.875,27.73
0.890625,24.73
0.90625,21.86
0.921875,19.49
0.9375,17.84
0.953125,17.05
0.96875,17.12
0.984375,17.99
1.0,19.54
1.015625,21.55
1.03125,23.73
1.046875,25.69
1.0625,26.97
1.078125,27.20
1.09375,26.19
1.109375,24.01
1.125,21.01
1.140625,17.67
1.15625,14.46
1.171875,11.62
1.1875,9.13
1.203125,6.77
1.21875,4.24
1.234375,1.35
1.25,-1.86
1.265625,-5.18
1.28125,-8.37
1.296875,-11.25
1.3125,-13.86
1.328125,-16.37
1.34375,-19.02
1.359375,-22.05
1.375,-25.62
1.390625,-29.77
1.40625,-34.35
1.421875,-38.93
1.4375,-42.83
1.453125,-45.12
1.46875,-44.85
1.484375,-41.36
1.5,-34.52
1.515625,-24.89
1.53125,-13.60
1.546875,-2.01
1.5625,8.63
1.578125,17.49
1.59375,24.27
1.609375,29.01
1.625,31.92
1.640625,33.16
1.65625,32.79
1.671875,30.83
1.6875,27.50
1.703125,23.28
1.71875,18.91
1.734375,15.19
1.75,12.71
1.765625,11.67
1.78125,11.88
1.796875,12.92
1.8125,14.34
1.828125,15.79
1.84375,17.07
1.859375,18.07
1.875,18.65
1.890625,18.62
1.90625,17.80
1.921875,16.09
1.9375,13.53
1.953125,10.34
1.96875,6.82
1.984375,3.25
2.0,-0.13
2.015625,-3.25
2.03125,-6.16
2.046875,-8.99
2.0625,-11.84
2.078125,-14.74
2.09375,-17.63
2.109375,-20.41
2.125,-23.10
2.140625,-25.84
2.15625,-28.87
2.171875,-32.39
2.1875,-36.32
2.203125,-40.17
2.21875,-43.10
2.234375,-44.09
2.25,-42.33
2.265625,-37.50
2.28125,-29.86
2.296875,-20.24
2.3125,-9.69
2.328125,0.73
2.34375,10.23
2.359375,18.28
2.375,24.55
2.390625,28.88
2.40625,31.18
2.421875,31.50
2.4375,30.06
2.453125,27.26
2.46875,23.66
2.484375,19.85
2.5,16.37
2.515625,13.64
2.53125,11.92
2.546875,11.33
2.5625,11.83
2.578125,13.19
2.59375,15.07
2.609375,17.06
2.625,18.77
2.640625,19.93
2.65625,20.38
2.671875,20.06
2.6875,18.97
2.703125,17.17
2.71875,14.81
2.734375,12.08
2.75,9.18
2.765625,6.30
2.78125,3.48
2.796875,0.70
2.8125,-2.14
2.828125,-5.06
2.84375,-7.98
2.859375,-10.76
2.875,-13.25
2.890625,-15.45
2.90625,-17.50
2.921875,-19.73
2.9375,-22.49
2.953125,-26.09
2.96875,-30.63
2.984375,-35.93
3.0,-41.47
3.015625,-46.45
3.03125,-49.91
3.046875,-51.00
3.0625,-49.15
3.078125,-44.28
3.09375,-36.77
3.109375,-27.42
3.125,-17.22
3.140625,-7.18
3.15625,1.89
3.171875,9.43
3.1875,15.18
3.203125,19.01
3.21875,20.94
3.234375,21.04
3.25,19.50
3.265625,16.72
3.28125,13.30
3.296875,9.95
3.3125,7.38
3.328125,6.08
3.34375,6.21
3.359375,7.60
3.375,9.87
3.390625,12.62
3.40625,15.50
3.421875,18.26
3.4375,20.73
3.453125,22.73
3.46875,24.06
3.484375,24.57
3.5,24.13
3.515625,22.77
3.53125,20.65
3.546875,18.04
3.5625,15.27
3.578125,12.62
3.59375,10.24
3.609375,8.11
3.625,6.06
3.640625,3.84
3.65625,1.25
3.671875,-1.77
3.6875,-5.15
3.703125,-8.65
3.71875,-12.02
3.734375,-15.04
3.75,-17.66
3.765625,-20.02
3.78125,-22.44
3.796875,-25.34
3.8125,-29.08
3.828125,-33.78
3.84375,-39.20
3.859375,-44.65
3.875,-49.17
3.890625,-51.69
3.90625,-51.36
3.921875,-47.76
3.9375,-40.97
3.953125,-31.58
3.96875,-20.54
3.984375,-8.98
4.0,1.99
4.015625,11.50
4.03125,18.98
4.046875,24.23
4.0625,27.36
4.078125,28.61
4.09375,28.34
4.109375,26.86
4.125,24.51
4.140625,21.70
4.15625,18.86
4.171875,16.46
4.1875,14.86
4.203125,14.28
4.21875,14.79
4.234375,16.23
4.25,18.37
4.265625,20.84
4.28125,23.26
4.296875,25.21
4.3125,26.38
4.328125,26.61
4.34375,25.92
4.359375,24.52
4.375,22.68
4.390625,20.67
4.40625,18.63
4.421875,16.59
4.4375,14.48
4.453125,12.25
4.46875,9.89
4.484375,7.47
4.5,5.08
4.515625,2.79
4.53125,0.60
4.546875,-1.59
4.5625,-3.89
4.578125,-6.42
4.59375,-9.22
4.609375,-12.17
4.625,-15.11
4.640625,-17.86
4.65625,-20.35
4.671875,-22.66
4.6875,-24.94
4.703125,-27.40
4.71875,-30.24
4.734375,-33.62
4.75,-37.56
4.765625,-41.96
4.78125,-46.40
4.796875,-50.18
4.8125,-52.33
4.828125,-51.86
4.84375,-48.06
4.859375,-40.77
4.875,-30.56
4.890625,-18.54
4.90625,-6.04
4.921875,5.67
4.9375,15.72
4.953125,23.65
4.96875,29.35
4.984375,32.90
5.0,34.49
5.015625,34.35
5.03125,32.82
5.046875,30.35
5.0625,27.45
5.078125,24.64
5.09375,22.38
5.109375,20.91
5.125,20.37
5.140625,20.70
5.15625,21.77
5.171875,23.38
5.1875,25.28
5.203125,27.23
5.21875,28.96
5.234375,30.23
5.25,30.83
5.265625,30.64
5.28125,29.64
5.296875,27.93
5.3125,25.70
5.328125,23.17
5.34375,20.52
5.359375,17.87
5.375,15.28
5.390625,12.74
5.40625,10.22
5.421875,7.74
5.4375,5.33
5.453125,3.06
5.46875,0.98
5.484375,-0.89
5.5,-2.60
5.515625,-4.26
5.53125,-6.00
5.546875,-7.97
5.5625,-10.26
5.578125,-12.87
5.59375,-15.69
5.609375,-18.59
5.625,-21.38
5.640625,-23.98
5.65625,-26.43
5.671875,-28.92
5.6875,-31.75
5.703125,-35.23
5.71875,-39.53
5.734375,-44.49
5.75,-49.55
5.765625,-53.76
5.78125,-55.99
5.796875,-55.23
5.8125,-50.88
5.828125,-42.96
5.84375,-32.11
5.859375,-19.44
5.875,-6.28
5.890625,6.14
5.90625,16.82
5.921875,25.15
5.9375,30.90
5.953125,34.14
5.96875,35.16
5.984375,34.32
6.0,32.05
6.015625,28.80
6.03125,25.05
6.046875,21.30
6.0625,18.05
6.078125,15.70
6.09375,14.46
6.109375,14.34
6.125,15.18
6.140625,16.71
6.15625,18.66
6.171875,20.73
6.1875,22.63
6.203125,24.05
6.21875,24.71
6.234375,24.41
6.25,23.12
6.265625,21.03
6.28125,18.48
6.296875,15.84
6.3125,13.40
6.328125,11.25
6.34375,9.33
6.359375,7.52
6.375,5.64
6.390625,3.64
6.40625,1.53
6.421875,-0.58
6.4375,-2.56
6.453125,-4.30
6.46875,-5.81
6.484375,-7.21
6.5,-8.71
6.515625,-10.52
6.53125,-12.71
6.546875,-15.22
6.5625,-17.83
6.578125,-20.29
6.59375,-22.41
6.609375,-24.22
6.625,-25.89
6.640625,-27.73
6.65625,-30.05
6.671875,-33.07
6.6875,-36.82
6.703125,-41.07
6.71875,-45.27
6.734375,-48.59
6.75,-50.10
6.765625,-48.96
6.78125,-44.67
6.796875,-37.27
6.8125,-27.31
6.828125,-15.79
6.84375,-3.86
6.859375,7.37
6.875,17.04
6.890625,24.63
6.90625,29.90
6.921875,32.87
6.9375,33.68
6.953125,32.62
6.96875,30.08
6.984375,26.57
7.0,22.73
7.015625,19.20
7.03125,16.54
7.046875,15.08
7.0625,14.94
7.078125,15.95
7.09375,17.84
7.109375,20.22
7.125,22.69
7.140625,24.93
7.15625,26.61
7.171875,27.57
7.1875,27.70
7.203125,27.03
7.21875,25.63
7.234375,23.65
7.25,21.22
7.265625,18.52
7.28125,15.72
7.296875,12.93
7.3125,10.22
7.328125,7.57
7.34375,4.94
7.359375,2.29
7.375,-0.34
7.390625,-2.86
7.40625,-5.17
7.421875,-7.23
7.4375,-9.14
7.453125,-11.03
7.46875,-13.06
7.484375,-15.32
7.5,-17.79
7.515625,-20.40
7.53125,-23.04
7.546875,-25.59
7.5625,-28.00
7.578125,-30.27
7.59375,-32.53
7.609375,-35.01
7.625,-38.02
7.640625,-41.82
7.65625,-46.47
7.671875,-51.65
7.6875,-56.59
7.703125,-60.21
7.71875,-61.34
7.734375,-59.08
7.75,-53.12
7.765625,-43.79
7.78125,-32.02
7.796875,-19.04
7.8125,-6.10
7.828125,5.82
7.84375,16.03
7.859375,24.17
7.875,30.06
7.890625,33.68
7.90625,35.12
7.921875,34.61
7.9375,32.56
7.953125,29.55
7.96875,26.20
7.984375,23.10
8.0,20.69
8.015625,19.22
8.03125,18.75
8.046875,19.18
8.0625,20.34
8.078125,22.02
8.09375,24.01
8.109375,26.09
8.125,27.99
8.140625,29.49
8.15625,30.34
8.171875,30.39
8.1875,29.57
8.203125,27.97
8.21875,25.78
8.234375,23.25
8.25,20.63
8.265625,18.11
8.28125,15.76
8.296875,13.57
8.3125,11.47
8.328125,9.38
8.34375,7.23
8.359375,5.01
8.375,2.77
8.390625,0.54
8.40625,-1.61
8.421875,-3.64
8.4375,-5.61
8.453125,-7.59
8.46875,-9.73
8.484375,-12.17
8.5,-14.98
8.515625,-18.10
8.53125,-21.37
8.546875,-24.57
8.5625,-27.52
8.578125,-30.19
8.59375,-32.75
8.609375,-35.52
8.625,-38.90
8.640625,-43.16
8.65625,-48.30
8.671875,-53.84
8.6875,-58.90
8.703125,-62.27
8.71875,-62.79
8.734375,-59.65
8.75,-52.70
8.765625,-42.54
8.78125,-30.31
8.796875,-17.45
8.8125,-5.29
8.828125,5.25
8.84375,13.68
8.859375,19.95
8.875,24.22
8.890625,26.66
8.90625,27.39
8.921875,26.47
8.9375,24.03
8.953125,20.41
8.96875,16.14
8.984375,11.92
9.0,8.42
9.015625,6.13
9.03125,5.26
9.046875,5.73
9.0625,7.36
9.078125,9.89
9.09375,13.12
9.109375,16.81
9.125,20.68
9.140625,24.35
9.15625,27.38
9.171875,29.44
9.1875,30.40
9.203125,30.44
9.21875,29.92
9.234375,29.18
9.25,28.42
9.265625,27.56
9.28125,26.35
9.296875,24.55
9.3125,22.11
9.328125,19.21
9.34375,16.17
9.359375,13.24
9.375,10.49
9.390625,7.77
9.40625,4.80
9.421875,1.44
9.4375,-2.30
9.453125,-6.18
9.46875,-9.88
9.484375,-13.11
9.5,-15.74
9.515625,-17.81
9.53125,-19.56
9.546875,-21.34
9.5625,-23.54
9.578125,-26.54
9.59375,-30.53
9.609375,-35.45
9.625,-40.90
9.640625,-46.07
9.65625,-49.92
9.671875,-51.36
9.6875,-49.56
9.703125,-44.18
9.71875,-35.51
9.734375,-24.41
9.75,-12.16
9.765625,-0.07
9.78125,10.75
9.796875,19.62
9.8125,26.27
9.828125,30.78
9.84375,33.37
9.859375,34.28
9.875,33.73
9.890625,31.91
9.90625,29.06
9.921875,25.55
9.9375,21.88
9.953125,18.60
9.96875,16.17
9.984375,14.92
10.0,14.90
10.015625,15.95
10.03125,17.75
10.046875,19.92
10.0625,22.04
10.078125,23.74
10.09375,24.76
10.109375,24.98
10.125,24.42
10.140625,23.21
10.15625,21.53
10.171875,19.47
10.1875,17.10
10.203125,14.43
10.21875,11.52
10.234375,8.51
10.25,5.60
10.265625,2.94
10.28125,0.56
10.296875,-1.69
10.3125,-4.04
10.328125,-6.70
10.34375,-9.71
10.359375,-12.96
10.375,-16.19
10.390625,-19.18
10.40625,-21.78
10.421875,-23.98
10.4375,-25.95
10.453125,-27.94
10.46875,-30.29
10.484375,-33.35
10.5,-37.31
10.515625,-42.12
10.53125,-47.37
10.546875,-52.29
10.5625,-55.81
10.578125,-56.84
10.59375,-54.57
10.609375,-48.71
10.625,-39.59
10.640625,-28.14
10.65625,-15.58
10.671875,-3.19
10.6875,7.96
10.703125,17.19
10.71875,24.15
10.734375,28.71
10.75,30.94
10.765625,30.99
10.78125,29.19
10.796875,26.05
10.8125,22.28
10.828125,18.65
10.84375,15.86
10.859375,14.36
10.875,14.34
10.890625,15.71
10.90625,18.19
10.921875,21.39
10.9375,24.87
10.953125,28.17
10.96875,30.84
10.984375,32.47
11.0,32.83
11.015625,31.90
11.03125,29.87
11.046875,27.08
11.0625,23.90
11.078125,20.56
11.09375,17.14
11.109375,13.60
11.125,9.83
11.140625,5.85
11.15625,1.72
11.171875,-2.37
11.1875,-6.28
11.203125,-9.92
11.21875,-13.30
11.234375,-16.46
11.25,-19.48
11.265625,-22.48
11.28125,-25.62
11.296875,-29.13
11.3125,-33.20
11.328125,-37.81
11.34375,-42.62
11.359375,-46.92
11.375,-49.77
11.390625,-50.26
11.40625,-47.77
11.421875,-42.22
11.4375,-33.99
11.453125,-23.81
11.46875,-12.63
11.484375,-1.35
11.5,9.22
11.515625,18.39
11.53125,25.66
11.546875,30.69
11.5625,33.37
11.578125,33.78
11.59375,32.25
11.609375,29.25
11.625,25.36
11.640625,21.21
11.65625,17.43
11.671875,14.55
11.6875,12.92
11.703125,12.67
11.71875,13.64
11.734375,15.49
11.75,17.71
11.765625,19.82
11.78125,21.41
11.796875,22.24
11.8125,22.22
11.828125,21.32
11.84375,19.59
11.859375,17.12
11.875,14.05
11.890625,10.60
11.90625,7.00
11.921875,3.50
11.9375,0.22
11.953125,-2.89
11.96875,-6.02
11.984375,-9.35
12.0,-12.96
12.015625,-16.73
12.03125,-20.36
12.046875,-23.56
12.0625,-26.22
12.078125,-28.49
12.09375,-30.78
12.109375,-33.62
12.125,-37.33
12.140625,-41.94
12.15625,-46.99
12.171875,-51.64
12.1875,-54.83
12.203125,-55.50
12.21875,-52.92
12.234375,-46.85
12.25,-37.65
12.265625,-26.21
12.28125,-13.71
12.296875,-1.34
12.3125,9.91
12.328125,19.42
12.34375,26.85
12.359375,32.13
12.375,35.33
12.390625,36.64
12.40625,36.33
12.421875,34.75
12.4375,32.30
12.453125,29.44
12.46875,26.60
12.484375,24.18
12.5,22.49
12.515625,21.73
12.53125,21.93
12.546875,22.93
12.5625,24.45
12.578125,26.15
12.59375,27.74
12.609375,28.96
12.625,29.62
12.640625,29.59
12.65625,28.73
12.671875,27.01
12.6875,24.49
12.703125,21.33
12.71875,17.79
12.734375,14.17
12.75,10.71
12.765625,7.61
12.78125,4.90
12.796875,2.42
12.8125,-0.08
12.828125,-2.88
12.84375,-6.14
12.859375,-9.78
12.875,-13.45
12.890625,-16.77
12.90625,-19.44
12.921875,-21.50
12.9375,-23.29
12.953125,-25.34
12.96875,-28.13
12.984375,-31.93
13.0,-36.65
13.015625,-41.87
13.03125,-46.82
13.046875,-50.51
13.0625,-51.92
13.078125,-50.26
13.09375,-45.19
13.109375,-36.99
13.125,-26.45
13.140625,-14.70
13.15625,-2.88
13.171875,8.10
13.1875,17.61
13.203125,25.30
13.21875,31.00
13.234375,34.67
13.25,36.39
13.265625,36.38
13.28125,34.93
13.296875,32.45
13.3125,29.38
13.328125,26.20
13.34375,23.41
13.359375,21.42
13.375,20.50
13.390625,20.71
13.40625,21.81
13.421875,23.43
13.4375,25.12
13.453125,26.55
13.46875,27.52
13.484375,27.96
13.5,27.83
13.515625,27.10
13.53125,25.70
13.546875,23.59
13.5625,20.82
13.578125,17.56
13.59375,14.10
13.609375,10.74
13.625,7.70
13.640625,5.09
13.65625,2.83
13.671875,0.73
13.6875,-1.44
13.703125,-3.85
13.71875,-6.57
13.734375,-9.54
13.75,-12.62
13.765625,-15.63
13.78125,-18.45
13.796875,-21.02
13.8125,-23.40
13.828125,-25.74
13.84375,-28.26
13.859375,-31.19
13.875,-34.76
13.890625,-39.02
13.90625,-43.69
13.921875,-48.11
13.9375,-51.26
13.953125,-52.01
13.96875,-49.49
13.984375,-43.39
14.0,-34.14
14.015625,-22.81
14.03125,-10.75
14.046875,0.76
14.0625,10.85
14.078125,19.09
14.09375,25.41
14.109375,29.86
14.125,32.52
14.140625,33.49
14.15625,32.89
14.171875,31.03
14.1875,28.33
14.203125,25.30
14.21875,22.43
14.234375,20.10
14.25,18.53
14.265625,17.83
14.28125,17.99
14.296875,18.88
14.3125,20.28
14.328125,21.86
14.34375,23.34
14.359375,24.44
14.375,25.02
14.390625,24.98
14.40625,24.23
14.421875,22.66
14.4375,20.26
14.453125,17.14
14.46875,13.62
14.484375,10.16
14.5,7.12
14.515625,4.65
14.53125,2.58
14.546875,0.50
14.5625,-2.00
14.578125,-5.11
14.59375,-8.72
14.609375,-12.46
14.625,-15.90
14.640625,-18.73
14.65625,-20.89
14.671875,-22.56
14.6875,-24.08
14.703125,-25.83
14.71875,-28.14
14.734375,-31.15
14.75,-34.84
14.765625,-39.00
14.78125,-43.21
14.796875,-46.82
14.8125,-49.04
14.828125,-48.99
14.84375,-45.99
14.859375,-39.78
14.875,-30.70
14.890625,-19.69
14.90625,-8.07
14.921875,2.86
14.9375,12.14
14.953125,19.34
14.96875,24.44
14.984375,27.67
15.0,29.22
15.015625,29.18
15.03125,27.67
15.046875,24.96
15.0625,21.58
15.078125,18.17
15.09375,15.36
15.109375,13.58
15.125,12.87
15.140625,13.05
15.15625,13.81
15.171875,14.89
15.1875,16.18
15.203125,17.64
15.21875,19.20
15.234375,20.68
15.25,21.73
15.265625,21.96
15.28125,21.08
15.296875,19.04
15.3125,16.05
15.328125,12.53
15.34375,8.92
15.359375,5.57
15.375,2.57
15.390625,-0.19
15.40625,-2.90
15.421875,-5.73
15.4375,-8.72
15.453125,-11.81
15.46875,-14.86
15.484375,-17.76
15.5,-20.46
15.515625,-23.03
15.53125,-25.63
15.546875,-28.49
15.5625,-31.76
15.578125,-35.43
15.59375,-39.21
15.609375,-42.47
15.625,-44.38
15.640625,-44.09
15.65625,-41.00
15.671875,-34.99
15.6875,-26.47
15.703125,-16.32
15.71875,-5.61
15.734375,4.61
15.75,13.52
15.765625,20.65
15.78125,25.79
15.796875,28.93
15.8125,30.18
15.828125,29.74
15.84375,27.88
15.859375,24.99
15.875,21.56
15.890625,18.09
15.90625,15.05
15.921875,12.77
15.9375,11.44
15.953125,11.07
15.96875,11.55
15.984375,12.66
16.0,14.11
16.015625,15.53
16.03125,16.58
16.046875,17.00
16.0625,16.67
16.078125,15.63
16.09375,13.99
16.109375,11.89
16.125,9.42
16.140625,6.65
16.15625,3.66
16.171875,0.60
16.1875,-2.36
16.203125,-5.03
16.21875,-7.39
16.234375,-9.52
16.25,-11.64
16.265625,-14.02
16.28125,-16.88
16.296875,-20.33
16.3125,-24.38
16.328125,-28.89
16.34375,-33.50
16.359375,-37.64
16.375,-40.53
16.390625,-41.32
16.40625,-39.37
16.421875,-34.44
16.4375,-26.83
16.453125,-17.33
16.46875,-7.02
16.484375,3.03
16.5,11.95
16.515625,19.20
16.53125,24.56
16.546875,28.01
16.5625,29.64
16.578125,29.57
16.59375,27.97
16.609375,25.09
16.625,21.31
16.640625,17.15
16.65625,13.22
16.671875,10.09
16.6875,8.16
16.703125,7.53
16.71875,8.01
16.734375,9.21
16.75,10.68
16.765625,12.08
16.78125,13.24
16.796875,14.10
16.8125,14.61
16.828125,14.61
16.84375,13.86
16.859375,12.11
16.875,9.25
16.890625,5.45
16.90625,1.15
16.921875,-3.06
16.9375,-6.71
16.953125,-9.55
16.96875,-11.66
16.984375,-13.38
17.0,-15.10
17.015625,-17.21
17.03125,-19.95
17.046875,-23.42
17.0625,-27.59
17.078125,-32.27
17.09375,-37.01
17.109375,-41.13
17.125,-43.79
17.140625,-44.11
17.15625,-41.52
17.171875,-35.87
17.1875,-27.59
17.203125,-17.55
17.21875,-6.83
17.234375,3.46
17.25,12.42
17.265625,19.45
17.28125,24.26
17.296875,26.80
17.3125,27.22
17.328125,25.81
17.34375,22.98
17.359375,19.24
17.375,15.20
17.390625,11.50
17.40625,8.70
17.421875,7.18
17.4375,7.06
17.453125,8.19
17.46875,10.20
17.484375,12.61
17.5,14.93
17.515625,16.76
17.53125,17.87
17.546875,18.14
17.5625,17.59
17.578125,16.32
17.59375,14.44
17.609375,12.03
17.625,9.11
17.640625,5.77
17.65625,2.16
17.671875,-1.48
17.6875,-4.88
17.703125,-7.85
17.71875,-10.38
17.734375,-12.64
17.75,-14.93
17.765625,-17.53
17.78125,-20.66
17.796875,-24.37
17.8125,-28.60
17.828125,-33.13
17.84375,-37.58
17.859375,-41.34
17.875,-43.63
17.890625,-43.59
17.90625,-40.64
17.921875,-34.61
17.9375,-25.95
17.953125,-15.53
17.96875,-4.48
17.984375,6.14
18.0,15.51
18.015625,23.11
18.03125,28.68
18.046875,32.12
18.0625,33.49
18.078125,32.91
18.09375,30.71
18.109375,27.39
18.125,23.59
18.140625,19.96
18.15625,17.06
18.171875,15.24
18.1875,14.58
18.203125,14.97
18.21875,16.18
18.234375,17.90
18.25,19.85
18.265625,21.76
18.28125,23.35
18.296875,24.35
18.3125,24.52
18.328125,23.68
18.34375,21.82
18.359375,19.10
18.375,15.84
18.390625,12.46
18.40625,9.33
18.421875,6.66
18.4375,4.42
18.453125,2.37
18.46875,0.19
18.484375,-2.40
18.5,-5.44
18.515625,-8.74
18.53125,-12.01
18.546875,-14.95
18.5625,-17.43
18.578125,-19.52
18.59375,-21.44
18.609375,-23.44
18.625,-25.75
18.640625,-28.55
18.65625,-31.96
18.671875,-35.97
18.6875,-40.34
18.703125,-44.51
18.71875,-47.59
18.734375,-48.56
18.75,-46.58
18.765625,-41.27
18.78125,-32.90
18.796875,-22.32
18.8125,-10.75
18.828125,0.58
18.84375,10.67
18.859375,18.91
18.875,25.02
18.890625,29.01
18.90625,31.00
18.921875,31.25
18.9375,30.07
18.953125,27.89
18.96875,25.19
18.984375,22.48
19.0,20.18
19.015625,18.61
19.03125,17.88
19.046875,18.01
19.0625,18.92
19.078125,20.48
19.09375,22.50
19.109375,24.72
19.125,26.82
19.140625,28.45
19.15625,29.28
19.171875,29.16
19.1875,28.08
19.203125,26.20
19.21875,23.80
19.234375,21.17
19.25,18.55
19.265625,16.07
19.28125,13.73
19.296875,11.46
19.3125,9.15
19.328125,6.73
19.34375,4.21
19.359375,1.67
19.375,-0.75
19.390625,-2.97
19.40625,-4.99
19.421875,-6.90
19.4375,-8.83
19.453125,-10.87
19.46875,-13.03
19.484375,-15.22
19.5,-17.36
19.515625,-19.37
19.53125,-21.27
19.546875,-23.19
19.5625,-25.26
19.578125,-27.67
19.59375,-30.55
19.609375,-33.99
19.625,-37.97
19.640625,-42.33
19.65625,-46.56
19.671875,-49.89
19.6875,-51.33
19.703125,-49.98
19.71875,-45.28
19.734375,-37.31
19.75,-26.78
19.765625,-14.90
19.78125,-3.02
19.796875,7.67
19.8125,16.42
19.828125,22.88
19.84375,27.05
19.859375,29.10
19.875,29.26
19.890625,27.81
19.90625,25.09
19.921875,21.57
19.9375,17.81
19.953125,14.37
19.96875,11.75
19.984375,10.23
20.0,9.87
20.015625,10.59
20.03125,12.19
20.046875,14.43
20.0625,17.01
20.078125,19.55
20.09375,21.65
20.109375,22.96
20.125,23.24
20.140625,22.51
20.15625,20.93
20.171875,18.77
20.1875,16.27
20.203125,13.58
20.21875,10.83
20.234375,8.08
20.25,5.44
20.265625,3.04
20.28125,0.96
20.296875,-0.79
20.3125,-2.30
20.328125,-3.74
20.34375,-5.32
20.359375,-7.16
20.375,-9.35
20.390625,-11.85
20.40625,-14.49
20.421875,-17.10
20.4375,-19.49
20.453125,-21.56
20.46875,-23.37
20.484375,-25.05
20.5,-26.82
20.515625,-28.93
20.53125,-31.60
20.546875,-34.92
20.5625,-38.82
20.578125,-42.92
20.59375,-46.53
20.609375,-48.71
20.625,-48.52
20.640625,-45.28
20.65625,-38.82
20.671875,-29.62
20.6875,-18.63
20.703125,-7.08
20.71875,3.89
20.734375,13.39
20.75,20.91
20.765625,26.25
20.78125,29.46
20.796875,30.75
20.8125,30.38
20.828125,28.70
20.84375,26.08
20.859375,22.92
20.875,19.66
20.890625,16.69
20.90625,14.38
20.921875,13.00
20.9375,12.69
20.953125,13.46
20.96875,15.15
20.984375,17.47
21.0,19.96
21.015625,22.12
21.03125,23.51
21.046875,23.87
21.0625,23.22
21.078125,21.78
21.09375,19.89
21.109375,17.82
21.125,15.71
21.140625,13.55
21.15625,11.31
21.171875,8.97
21.1875,6.56
21.203125,4.16
21.21875,1.83
21.234375,-0.41
21.25,-2.50
21.265625,-4.45
21.28125,-6.23
21.296875,-7.87
21.3125,-9.52
21.328125,-11.40
21.34375,-13.72
21.359375,-16.55
21.375,-19.77
21.390625,-23.06
21.40625,-26.11
21.421875,-28.72
21.4375,-30.96
21.453125,-33.11
21.46875,-35.59
21.484375,-38.77
21.5,-42.76
21.515625,-47.35
21.53125,-51.91
21.546875,-55.52
21.5625,-57.14
21.578125,-55.88
21.59375,-51.29
21.609375,-43.46
21.625,-33.11
21.640625,-21.31
21.65625,-9.27
21.671875,1.97
21.6875,11.69
21.703125,19.49
21.71875,25.22
21.734375,28.83
21.75,30.40
21.765625,30.10
21.78125,28.26
21.796875,25.39
21.8125,22.07
21.828125,18.93
21.84375,16.46
21.859375,14.95
21.875,14.48
21.890625,14.97
21.90625,16.26
21.921875,18.13
21.9375,20.38
21.953125,22.72
21.96875,24.87
21.984375,26.50
22.0,27.36
22.015625,27.31
22.03125,26.41
22.046875,24.82
22.0625,22.84
22.078125,20.73
22.09375,18.67
22.109375,16.74
22.125,14.83
22.140625,12.80
22.15625,10.47
22.171875,7.82
22.1875,4.96
22.203125,2.15
22.21875,-0.38
22.234375,-2.50
22.25,-4.25
22.265625,-5.83
22.28125,-7.48
22.296875,-9.36
22.3125,-11.59
22.328125,-14.16
22.34375,-17.02
22.359375,-20.07
22.375,-23.16
22.390625,-26.16
22.40625,-28.98
22.421875,-31.64
22.4375,-34.40
22.453125,-37.57
22.46875,-41.44
22.484375,-45.98
22.5,-50.75
22.515625,-54.90
22.53125,-57.32
22.546875,-57.04
22.5625,-53.39
22.578125,-46.32
22.59375,-36.36
22.609375,-24.51
22.625,-11.99
22.640625,0.04
22.65625,10.67
22.671875,19.41
22.6875,26.06
22.703125,30.67
22.71875,33.36
22.734375,34.25
22.75,33.47
22.765625,31.27
22.78125,28.07
22.796875,24.52
22.8125,21.31
22.828125,19.00
22.84375,17.87
22.859375,17.81
22.875,18.55
22.890625,19.75
22.90625,21.21
22.921875,22.87
22.9375,24.70
22.953125,26.57
22.96875,28.20
22.984375,29.19
23.0,29.26
23.015625,28.30
23.03125,26.49
23.046875,24.16
23.0625,21.68
23.078125,19.27
23.09375,17.00
23.109375,14.81
23.125,12.57
23.140625,10.24
23.15625,7.78
23.171875,5.26
23.1875,2.79
23.203125,0.42
23.21875,-1.80
23.234375,-3.93
23.25,-6.09
23.265625,-8.39
23.28125,-10.93
23.296875,-13.66
23.3125,-16.50
23.328125,-19.31
23.34375,-21.97
23.359375,-24.44
23.375,-26.79
23.390625,-29.13
23.40625,-31.60
23.421875,-34.37
23.4375,-37.59
23.453125,-41.41
23.46875,-45.83
23.484375,-50.56
23.5,-54.93
23.515625,-57.94
23.53125,-58.47
23.546875,-55.65
23.5625,-49.14
23.578125,-39.28
23.59375,-27.02
23.609375,-13.64
23.625,-0.51
23.640625,11.23
23.65625,20.77
23.671875,27.70
23.6875,31.97
23.703125,33.82
23.71875,33.71
23.734375,32.20
23.75,29.81
23.765625,27.04
23.78125,24.25
23.796875,21.72
23.8125,19.68
23.828125,18.30
23.84375,17.71
23.859375,17.99
23.875,19.19
23.890625,21.23
23.90625,23.90
23.921875,26.83
23.9375,29.52
23.953125,31.46
23.96875,32.28
23.984375,31.91
24.0,30.49
24.015625,28.36
24.03125,25.90
24.046875,23.38
24.0625,20.91
24.078125,18.49
24.09375,16.06
24.109375,13.54
24.125,10.91
24.140625,8.19
24.15625,5.49
24.171875,2.97
24.1875,0.74
24.203125,-1.13
24.21875,-2.75
24.234375,-4.30
24.25,-6.03
24.265625,-8.11
24.28125,-10.59
24.296875,-13.38
24.3125,-16.27
24.328125,-19.07
24.34375,-21.67
24.359375,-24.09
24.375,-26.50
24.390625,-29.20
24.40625,-32.54
24.421875,-36.71
24.4375,-41.66
24.453125,-46.89
24.46875,-51.48
24.484375,-54.21
24.5,-53.92
24.515625,-49.91
24.53125,-42.12
24.546875,-31.27
24.5625,-18.66
24.578125,-5.75
24.59375,6.18
24.609375,16.24
24.625,24.03
24.640625,29.49
24.65625,32.71
24.671875,33.85
24.6875,33.12
24.703125,30.75
24.71875,27.12
24.734375,22.74
24.75,18.16
24.765625,13.98
24.78125,10.71
24.796875,8.75
24.8125,8.27
24.828125,9.23
24.84375,11.39
24.859375,14.33
24.875,17.55
24.890625,20.56
24.90625,22.90
24.921875,24.26
24.9375,24.46
24.953125,23.49
24.96875,21.54
24.984375,18.92
25.0,15.97
25.015625,12.96
25.03125,10.08
25.046875,7.34
25.0625,4.77
25.078125,2.34
25.09375,0.06
25.109375,-2.07
25.125,-4.15
25.140625,-6.32
25.15625,-8.74
25.171875,-11.48
25.1875,-14.48
25.203125,-17.50
25.21875,-20.29
25.234375,-22.71
25.25,-24.83
25.265625,-26.93
25.28125,-29.42
25.296875,-32.66
25.3125,-36.83
25.328125,-41.74
25.34375,-46.85
25.359375,-51.36
25.375,-54.30
25.390625,-54.78
25.40625,-52.16
25.421875,-46.18
25.4375,-37.05
25.453125,-25.44
25.46875,-12.41
25.484375,0.82
25.5,13.01
25.515625,23.21
25.53125,30.82
25.546875,35.71
25.5625,38.06
25.578125,38.25
25.59375,36.67
25.609375,33.74
25.625,29.90
25.640625,25.64
25.65625,21.56
25.671875,18.24
25.6875,16.09
25.703125,15.29
25.71875,15.75
25.734375,17.19
25.75,19.23
25.765625,21.53
25.78125,23.80
25.796875,25.79
25.8125,27.25
25.828125,27.96
25.84375,27.68
25.859375,26.29
25.875,23.80
25.890625,20.41
25.90625,16.49
25.921875,12.48
25.9375,8.75
25.953125,5.55
25.96875,2.85
25.984375,0.40
26.0,-2.15
26.015625,-5.09
26.03125,-8.54
26.046875,-12.36
26.0625,-16.24
26.078125,-19.89
26.09375,-23.12
26.109375,-25.96
26.125,-28.68
26.140625,-31.67
26.15625,-35.33
26.171875,-39.92
26.1875,-45.37
26.203125,-51.21
26.21875,-56.53
26.234375,-60.11
26.25,-60.80
26.265625,-57.82
26.28125,-50.98
26.296875,-40.81
26.3125,-28.38
26.328125,-15.00
26.34375,-1.93
26.359375,9.82
26.375,19.61
26.390625,27.08
26.40625,32.15
26.421875,34.87
26.4375,35.43
26.453125,34.11
26.46875,31.33
26.484375,27.63
26.5,23.63
26.515625,19.95
26.53125,17.08
26.546875,15.31
26.5625,14.69
26.578125,15.11
26.59375,16.38
26.609375,18.26
26.625,20.46
26.640625,22.61
26.65625,24.27
26.671875,24.99
26.6875,24.48
26.703125,22.67
26.71875,19.79
26.734375,16.25
26.75,12.55
26.765625,9.03
26.78125,5.86
26.796875,2.96
26.8125,0.08
26.828125,-3.06
26.84375,-6.65
26.859375,-10.62
26.875,-14.77
26.890625,-18.79
26.90625,-22.48
26.921875,-25.85
26.9375,-29.07
26.953125,-32.41
26.96875,-36.14
26.984375,-40.44
27.0,-45.44
27.015625,-51.16
27.03125,-57.41
27.046875,-63.64
27.0625,-68.88
27.078125,-71.80
27.09375,-71.17
27.109375,-66.24
27.125,-57.09
27.140625,-44.58
27.15625,-30.10
27.171875,-15.06
27.1875,-0.61
27.203125,12.54
27.21875,24.05
27.234375,33.71
27.25,41.39
27.265625,46.99
27.28125,50.56
27.296875,52.32
27.3125,52.65
27.328125,52.04
27.34375,50.94
27.359375,49.71
27.375,48.59
27.390625,47.71
27.40625,47.16
27.421875,47.01
27.4375,47.28
27.453125,47.94
27.46875,48.82
27.484375,49.61
27.5,49.90
27.515625,49.22
27.53125,47.24
27.546875,43.86
27.5625,39.23
27.578125,33.81
27.59375,28.11
27.609375,22.65
27.625,17.71
27.640625,13.36
27.65625,9.47
27.671875,5.83
27.6875,2.26
27.703125,-1.28
27.71875,-4.72
27.734375,-7.94
27.75,-10.88
27.765625,-13.59
27.78125,-16.26
27.796875,-19.25
27.8125,-22.89
27.828125,-27.42
27.84375,-32.80
27.859375,-38.59
27.875,-43.91
27.890625,-47.62
27.90625,-48.52
27.921875,-45.75
27.9375,-39.10
27.953125,-29.06
27.96875,-16.76
27.984375,-3.63
28.0,8.91
28.015625,19.81
28.03125,28.45
28.046875,34.66
28.0625,38.52
28.078125,40.20
28.09375,39.95
28.109375,38.06
28.125,34.93
28.140625,31.05
28.15625,27.04
28.171875,23.50
28.1875,20.88
28.203125,19.45
28.21875,19.23
28.234375,20.05
28.25,21.64
28.265625,23.66
28.28125,25.79
28.296875,27.71
28.3125,29.05
28.328125,29.47
28.34375,28.72
28.359375,26.73
28.375,23.68
28.390625,19.96
28.40625,16.07
28.421875,12.45
28.4375,9.37
28.453125,6.85
28.46875,4.73
28.484375,2.72
28.5,0.54
28.515625,-1.98
28.53125,-4.83
28.546875,-7.83
28.5625,-10.69
28.578125,-13.15
28.59375,-15.12
28.609375,-16.74
28.625,-18.37
28.640625,-20.42
28.65625,-23.26
28.671875,-27.02
28.6875,-31.60
28.703125,-36.63
28.71875,-41.50
28.734375,-45.36
28.75,-47.25
28.765625,-46.30
28.78125,-41.96
28.796875,-34.26
28.8125,-23.89
28.828125,-12.06
28.84375,-0.16
28.859375,10.57
28.875,19.33
28.890625,25.79
28.90625,30.00
28.921875,32.15
28.9375,32.45
28.953125,31.08
28.96875,28.30
28.984375,24.52
29.0,20.36
29.015625,16.52
29.03125,13.65
29.046875,12.16
29.0625,12.10
29.078125,13.20
29.09375,15.03
29.109375,17.14
29.125,19.21
29.140625,21.06
29.15625,22.51
29.171875,23.41
29.1875,23.57
29.203125,22.84
29.21875,21.18
29.234375,18.71
29.25,15.64
29.265625,12.24
29.28125,8.75
29.296875,5.41
29.3125,2.35
29.328125,-0.33
29.34375,-2.66
29.359375,-4.74
29.375,-6.72
29.390625,-8.74
29.40625,-10.81
29.421875,-12.89
29.4375,-14.85
29.453125,-16.62
29.46875,-18.24
29.484375,-19.84
29.5,-21.62
29.515625,-23.80
29.53125,-26.57
29.546875,-30.05
29.5625,-34.15
29.578125,-38.51
29.59375,-42.42
29.609375,-44.91
29.625,-45.00
29.640625,-41.99
29.65625,-35.73
29.671875,-26.71
29.6875,-15.92
29.703125,-4.58
29.71875,6.20
29.734375,15.55
29.75,22.97
29.765625,28.17
29.78125,31.07
29.796875,31.74
29.8125,30.41
29.828125,27.51
29.84375,23.62
29.859375,19.44
29.875,15.64
29.890625,12.75
29.90625,11.11
29.921875,10.81
29.9375,11.77
29.953125,13.75
29.96875,16.43
29.984375,19.44
30.0,22.35
30.015625,24.72
30.03125,26.19
30.046875,26.52
30.0625,25.66
30.078125,23.72
30.09375,20.94
30.109375,17.61
30.125,14.00
30.140625,10.35
30.15625,6.83
30.171875,3.56
30.1875,0.61
30.203125,-2.01
30.21875,-4.32
30.234375,-6.44
30.25,-8.51
30.265625,-10.70
30.28125,-13.11
30.296875,-15.77
30.3125,-18.61
30.328125,-21.44
30.34375,-24.07
30.359375,-26.35
30.375,-28.31
30.390625,-30.12
30.40625,-32.08
30.421875,-34.54
30.4375,-37.76
30.453125,-41.82
30.46875,-46.51
30.484375,-51.24
30.5,-55.07
30.515625,-56.94
30.53125,-55.88
30.546875,-51.33
30.5625,-43.38
30.578125,-32.75
30.59375,-20.61
30.609375,-8.29
30.625,3.05
30.640625,12.64
30.65625,20.09
30.671875,25.36
30.6875,28.58
30.703125,29.92
30.71875,29.60
30.734375,27.89
30.75,25.18
30.765625,21.99
30.78125,18.89
30.796875,16.45
30.8125,15.06
30.828125,14.86
30.84375,15.74
30.859375,17.40
30.875,19.46
30.890625,21.58
30.90625,23.47
30.921875,24.93
30.9375,25.84
30.953125,26.15
30.96875,25.87
30.984375,25.03
31.0,23.69
31.015625,21.87
31.03125,19.66
31.046875,17.15
31.0625,14.49
31.078125,11.86
31.09375,9.42
31.109375,7.25
31.125,5.33
31.140625,3.54
31.15625,1.73
31.171875,-0.18
31.1875,-2.22
31.203125,-4.30
31.21875,-6.32
31.234375,-8.20
31.25,-9.96
31.265625,-11.67
31.28125,-13.47
31.296875,-15.51
31.3125,-17.80
31.328125,-20.28
31.34375,-22.77
31.359375,-25.07
31.375,-27.06
31.390625,-28.77
31.40625,-30.37
31.421875,-32.17
31.4375,-34.50
31.453125,-37.63
31.46875,-41.67
31.484375,-46.45
31.5,-51.48
31.515625,-55.94
31.53125,-58.77
31.546875,-58.96
31.5625,-55.82
31.578125,-49.20
31.59375,-39.61
31.609375,-28.09
31.625,-15.91
31.640625,-4.23
31.65625,6.08
31.671875,14.59
31.6875,21.20
31.703125,25.96
31.71875,29.01
31.734375,30.44
31.75,30.35
31.765625,28.94
31.78125,26.54
31.796875,23.63
31.8125,20.77
31.828125,18.46
31.84375,17.05
31.859375,16.65
31.875,17.17
31.890625,18.42
31.90625,20.14
31.921875,22.11
31.9375,24.12
31.953125,25.95
31.96875,27.37
31.984375,28.12
32.0,28.00
32.015625,26.94
32.03125,25.04
32.046875,22.59
32.0625,19.92
32.078125,17.34
32.09375,15.03
32.109375,12.98
32.125,11.08
32.140625,9.25
32.15625,7.46
32.171875,5.80
32.1875,4.34
32.203125,3.12
32.21875,2.02
32.234375,0.88
32.25,-0.48
32.265625,-2.11
32.28125,-3.93
32.296875,-5.77
32.3125,-7.46
32.328125,-8.95
32.34375,-10.36
32.359375,-11.87
32.375,-13.68
32.390625,-15.91
32.40625,-18.51
32.421875,-21.31
32.4375,-24.09
32.453125,-26.63
32.46875,-28.83
32.484375,-30.76
32.5,-32.63
32.515625,-34.78
32.53125,-37.58
32.546875,-41.28
32.5625,-45.91
32.578125,-51.09
32.59375,-56.09
32.609375,-59.87
32.625,-61.40
32.640625,-59.86
32.65625,-54.89
32.671875,-46.71
32.6875,-36.04
32.703125,-23.92
32.71875,-11.52
32.734375,0.12
32.75,10.18
32.765625,18.14
32.78125,23.79
32.796875,27.19
32.8125,28.60
32.828125,28.41
32.84375,27.01
32.859375,24.80
32.875,22.16
32.890625,19.54
32.90625,17.36
32.921875,16.02
32.9375,15.79
32.953125,16.70
32.96875,18.51
32.984375,20.85
33.0,23.34
33.015625,25.69
33.03125,27.74
33.046875,29.42
33.0625,30.62
33.078125,31.20
33.09375,30.95
33.109375,29.80
33.125,27.83
33.140625,25.35
33.15625,22.76
33.171875,20.37
33.1875,18.33
33.203125,16.58
33.21875,14.96
33.234375,13.31
33.25,11.60
33.265625,9.88
33.28125,8.22
33.296875,6.60
33.3125,4.95
33.328125,3.16
33.34375,1.22
33.359375,-0.78
33.375,-2.73
33.390625,-4.54
33.40625,-6.23
33.421875,-7.94
33.4375,-9.85
33.453125,-12.07
33.46875,-14.57
33.484375,-17.23
33.5,-19.90
33.515625,-22.45
33.53125,-24.82
33.546875,-27.04
33.5625,-29.21
33.578125,-31.47
33.59375,-34.07
33.609375,-37.25
33.625,-41.19
33.640625,-45.81
33.65625,-50.72
33.671875,-55.22
33.6875,-58.35
33.703125,-59.21
33.71875,-57.09
33.734375,-51.79
33.75,-43.55
33.765625,-33.07
33.78125,-21.32
33.796875,-9.37
33.8125,1.82
33.828125,11.52
33.84375,19.25
33.859375,24.80
33.875,28.11
33.890625,29.29
33.90625,28.56
33.921875,26.26
33.9375,22.91
33.953125,19.17
33.96875,15.74
33.984375,13.25
34.0,12.05
34.015625,12.22
34.03125,13.54
34.046875,15.64
34.0625,18.12
34.078125,20.70
34.09375,23.16
34.109375,25.36
34.125,27.12
34.140625,28.22
34.15625,28.47
34.171875,27.74
34.1875,26.07
34.203125,23.68
34.21875,20.91
34.234375,18.07
34.25,15.41
34.265625,13.03
34.28125,10.90
34.296875,8.95
34.3125,7.04
34.328125,5.08
34.34375,2.98
34.359375,0.76
34.375,-1.52
34.390625,-3.73
34.40625,-5.76
34.421875,-7.58
34.4375,-9.30
34.453125,-11.11
34.46875,-13.22
34.484375,-15.71
34.5,-18.53
34.515625,-21.49
34.53125,-24.39
34.546875,-27.09
34.5625,-29.59
34.578125,-31.97
34.59375,-34.46
34.609375,-37.29
34.625,-40.72
34.640625,-44.91
34.65625,-49.81
34.671875,-55.04
34.6875,-59.81
34.703125,-63.05
34.71875,-63.64
34.734375,-60.79
34.75,-54.22
34.765625,-44.35
34.78125,-32.15
34.796875,-18.92
34.8125,-5.97
34.828125,5.62
34.84375,15.11
34.859375,22.19
34.875,26.89
34.890625,29.46
34.90625,30.31
34.921875,29.88
34.9375,28.55
34.953125,26.70
34.96875,24.64
34.984375,22.62
35.0,20.89
35.015625,19.63
35.03125,19.02
35.046875,19.16
35.0625,20.08
35.078125,21.76
35.09375,24.03
35.109375,26.59
35.125,29.02
35.140625,30.86
35.15625,31.70
35.171875,31.35
35.1875,29.88
35.203125,27.62
35.21875,25.01
35.234375,22.48
35.25,20.28
35.265625,18.47
35.28125,16.97
35.296875,15.56
35.3125,14.04
35.328125,12.26
35.34375,10.18
35.359375,7.82
35.375,5.31
35.390625,2.79
35.40625,0.38
35.421875,-1.87
35.4375,-4.04
35.453125,-6.28
35.46875,-8.76
35.484375,-11.53
35.5,-14.52
35.515625,-17.55
35.53125,-20.41
35.546875,-22.98
35.5625,-25.30
35.578125,-27.54
35.59375,-30.02
35.609375,-33.10
35.625,-37.02
35.640625,-41.86
35.65625,-47.28
35.671875,-52.52
35.6875,-56.44
35.703125,-57.78
35.71875,-55.56
35.734375,-49.39
35.75,-39.70
35.765625,-27.54
35.78125,-14.37
35.796875,-1.55
35.8125,9.89
35.828125,19.40
35.84375,26.81
35.859375,32.20
35.875,35.67
35.890625,37.39
35.90625,37.53
35.921875,36.35
35.9375,34.25
35.953125,31.71
35.96875,29.24
35.984375,27.26
36.0,26.00
36.015625,25.57
36.03125,25.92
36.046875,26.99
36.0625,28.66
36.078125,30.79
36.09375,33.13
36.109375,35.29
36.125,36.80
36.140625,37.20
36.15625,36.23
36.171875,33.96
36.1875,30.75
36.203125,27.16
36.21875,23.70
36.234375,20.69
36.25,18.19
36.265625,16.03
36.28125,13.98
36.296875,11.83
36.3125,9.50
36.328125,7.05
36.34375,4.64
36.359375,2.47
36.375,0.68
36.390625,-0.72
36.40625,-1.85
36.421875,-3.02
36.4375,-4.51
36.453125,-6.53
36.46875,-9.07
36.484375,-11.91
36.5,-14.76
36.515625,-17.38
36.53125,-19.68
36.546875,-21.78
36.5625,-23.92
36.578125,-26.41
36.59375,-29.50
36.609375,-33.32
36.625,-37.75
36.640625,-42.36
36.65625,-46.37
36.671875,-48.75
36.6875,-48.53
36.703125,-45.07
36.71875,-38.32
36.734375,-28.82
36.75,-17.56
36.765625,-5.70
36.78125,5.70
36.796875,15.78
36.8125,23.96
36.828125,29.92
36.84375,33.59
36.859375,35.10
36.875,34.78
36.890625,33.04
36.90625,30.36
36.921875,27.19
36.9375,24.03
36.953125,21.33
36.96875,19.48
36.984375,18.71
37.0,19.00
37.015625,20.17
37.03125,21.86
37.046875,23.75
37.0625,25.59
37.078125,27.23
37.09375,28.53
37.109375,29.33
37.125,29.45
37.140625,28.74
37.15625,27.21
37.171875,25.05
37.1875,22.58
37.203125,20.09
37.21875,17.80
37.234375,15.71
37.25,13.68
37.265625,11.53
37.28125,9.17
37.296875,6.59
37.3125,3.95
37.328125,1.38
37.34375,-0.99
37.359375,-3.16
37.375,-5.19
37.390625,-7.17
37.40625,-9.18
37.421875,-11.24
37.4375,-13.32
37.453125,-15.39
37.46875,-17.45
37.484375,-19.53
37.5,-21.70
37.515625,-24.08
37.53125,-26.83
37.546875,-30.10
37.5625,-34.02
37.578125,-38.54
37.59375,-43.36
37.609375,-47.87
37.625,-51.17
37.640625,-52.27
37.65625,-50.38
37.671875,-45.13
37.6875,-36.75
37.703125,-26.02
37.71875,-14.10
37.734375,-2.18
37.75,8.70
37.765625,17.88
37.78125,25.02
37.796875,30.05
37.8125,32.99
37.828125,33.92
37.84375,32.99
37.859375,30.47
37.875,26.90
37.890625,22.96
37.90625,19.40
37.921875,16.77
37.9375,15.32
37.953125,14.98
37.96875,15.48
37.984375,16.51
38.0,17.85
38.015625,19.41
38.03125,21.07
38.046875,22.66
38.0625,23.90
38.078125,24.48
38.09375,24.21
38.109375,23.11
38.125,21.37
38.140625,19.26
38.15625,17.01
38.171875,14.75
38.1875,12.47
38.203125,10.15
38.21875,7.76
38.234375,5.32
38.25,2.94
38.265625,0.67
38.28125,-1.41
38.296875,-3.35
38.3125,-5.22
38.328125,-7.13
38.34375,-9.16
38.359375,-11.37
38.375,-13.77
38.390625,-16.30
38.40625,-18.87
38.421875,-21.33
38.4375,-23.58
38.453125,-25.57
38.46875,-27.40
38.484375,-29.32
38.5,-31.68
38.515625,-34.77
38.53125,-38.64
38.546875,-42.89
38.5625,-46.67
38.578125,-48.89
38.59375,-48.54
38.609375,-45.02
38.625,-38.35
38.640625,-29.21
38.65625,-18.66
38.671875,-7.84
38.6875,2.27
38.703125,11.02
38.71875,18.09
38.734375,23.37
38.75,26.86
38.765625,28.58
38.78125,28.61
38.796875,27.11
38.8125,24.40
38.828125,20.96
38.84375,17.37
38.859375,14.21
38.875,11.93
38.890625,10.77
38.90625,10.75
38.921875,11.71
38.9375,13.37
38.953125,15.48
38.96875,17.74
38.984375,19.88
39.0,21.60
39.015625,22.64
39.03125,22.81
39.046875,22.02
39.0625,20.39
39.078125,18.08
39.09375,15.34
39.109375,12.42
39.125,9.47
39.140625,6.62
39.15625,3.92
39.171875,1.40
39.1875,-0.96
39.203125,-3.18
39.21875,-5.30
39.234375,-7.38
39.25,-9.48
39.265625,-11.60
39.28125,-13.72
39.296875,-15.79
39.3125,-17.74
39.328125,-19.59
39.34375,-21.40
39.359375,-23.34
39.375,-25.62
39.390625,-28.45
39.40625,-31.95
39.421875,-36.08
39.4375,-40.56
39.453125,-44.89
39.46875,-48.39
39.484375,-50.27
39.5,-49.82
39.515625,-46.59
39.53125,-40.51
39.546875,-31.96
39.5625,-21.73
39.578125,-10.81
39.59375,-0.21
39.609375,9.26
39.625,17.04
39.640625,22.84
39.65625,26.55
39.671875,28.23
39.6875,28.04
39.703125,26.24
39.71875,23.26
39.734375,19.59
39.75,15.78
39.765625,12.36
39.78125,9.78
39.796875,8.32
39.8125,8.09
39.828125,9.04
39.84375,10.94
39.859375,13.48
39.875,16.25
39.890625,18.86
39.90625,20.94
39.921875,22.20
39.9375,22.41
39.953125,21.47
39.96875,19.38
39.984375,16.33
40.0,12.67
40.015625,8.85
40.03125,5.26
40.046875,2.17
40.0625,-0.43
40.078125,-2.70
40.09375,-4.92
40.109375,-7.29
40.125,-9.91
40.140625,-12.74
40.15625,-15.66
40.171875,-18.52
40.1875,-21.21
40.203125,-23.68
40.21875,-26.00
40.234375,-28.36
40.25,-31.02
40.265625,-34.20
40.28125,-37.86
40.296875,-41.60
40.3125,-44.59
40.328125,-45.78
40.34375,-44.27
40.359375,-39.58
40.375,-31.87
40.390625,-21.92
40.40625,-10.85
40.421875,0.15
40.4375,10.12
40.453125,18.40
40.46875,24.70
40.484375,28.96
40.5,31.26
40.515625,31.79
40.53125,30.81
40.546875,28.57
40.5625,25.44
40.578125,21.82
40.59375,18.19
40.609375,15.04
40.625,12.77
40.640625,11.66
40.65625,11.72
40.671875,12.77
40.6875,14.45
40.703125,16.34
40.71875,18.04
40.734375,19.23
40.75,19.73
40.765625,19.47
40.78125,18.51
40.796875,16.93
40.8125,14.85
40.828125,12.33
40.84375,9.41
40.859375,6.10
40.875,2.47
40.890625,-1.32
40.90625,-5.04
40.921875,-8.43
40.9375,-11.36
40.953125,-13.87
40.96875,-16.20
40.984375,-18.69
41.0,-21.69
41.015625,-25.40
41.03125,-29.77
41.046875,-34.47
41.0625,-38.82
41.078125,-41.98
41.09375,-43.08
41.109375,-41.45
41.125,-36.84
41.140625,-29.51
41.15625,-20.19
41.171875,-9.88
41.1875,0.37
41.203125,9.70
41.21875,17.52
41.234375,23.50
41.25,27.55
41.265625,29.70
41.28125,30.04
41.296875,28.76
41.3125,26.19
41.328125,22.75
41.34375,19.03
41.359375,15.64
41.375,13.08
41.390625,11.64
41.40625,11.32
41.421875,11.90
41.4375,13.00
41.453125,14.21
41.46875,15.23
41.484375,15.92
41.5,16.20
41.515625,16.07
41.53125,15.48
41.546875,14.36
41.5625,12.59
41.578125,10.13
41.59375,7.01
41.609375,3.38
41.625,-0.49
41.640625,-4.29
41.65625,-7.72
41.671875,-10.62
41.6875,-12.98
41.703125,-15.00
41.71875,-17.08
41.734375,-19.68
41.75,-23.13
41.765625,-27.52
41.78125,-32.52
41.796875,-37.44
41.8125,-41.32
41.828125,-43.19
41.84375,-42.28
41.859375,-38.24
41.875,-31.23
41.890625,-21.91
41.90625,-11.27
41.921875,-0.43
41.9375,9.59
41.953125,18.04
41.96875,24.49
41.984375,28.81
42.0,31.07
42.015625,31.48
42.03125,30.30
42.046875,27.93
42.0625,24.82
42.078125,21.45
42.09375,18.30
42.109375,15.69
42.125,13.87
42.140625,12.95
42.15625,12.95
42.171875,13.79
42.1875,15.23
42.203125,16.94
42.21875,18.50
42.234375,19.53
42.25,19.82
42.265625,19.33
42.28125,18.19
42.296875,16.52
42.3125,14.41
42.328125,11.82
42.34375,8.76
42.359375,5.27
42.375,1.56
42.390625,-2.11
42.40625,-5.50
42.421875,-8.51
42.4375,-11.18
42.453125,-13.64
42.46875,-16.03
42.484375,-18.50
42.5,-21.18
42.515625,-24.21
42.53125,-27.72
42.546875,-31.76
42.5625,-36.10
42.578125,-40.16
42.59375,-43.07
42.609375,-43.83
42.625,-41.67
42.640625,-36.27
42.65625,-27.94
42.671875,-17.54
42.6875,-6.25
42.703125,4.73
42.71875,14.44
42.734375,22.27
42.75,28.00
42.765625,31.61
42.78125,33.24
42.796875,33.04
42.8125,31.22
42.828125,28.14
42.84375,24.31
42.859375,20.40
42.875,17.10
42.890625,14.93
42.90625,14.15
42.921875,14.69
42.9375,16.24
42.953125,18.42
42.96875,20.86
42.984375,23.26
43.0,25.39
43.015625,27.02
43.03125,27.88
43.046875,27.76
43.0625,26.56
43.078125,24.33
43.09375,21.29
43.109375,17.76
43.125,14.10
43.140625,10.60
43.15625,7.45
43.171875,4.70
43.1875,2.26
43.203125,-0.08
43.21875,-2.51
43.234375,-5.19
43.25,-8.12
43.265625,-11.17
43.28125,-14.10
43.296875,-16.69
43.3125,-18.83
43.328125,-20.64
43.34375,-22.38
43.359375,-24.46
43.375,-27.26
43.390625,-31.00
43.40625,-35.65
43.421875,-40.79
43.4375,-45.63
43.453125,-49.13
43.46875,-50.22
43.484375,-48.11
43.5,-42.54
43.515625,-33.86
43.53125,-22.98
43.546875,-11.13
43.5625,0.45
43.578125,10.76
43.59375,19.18
43.609375,25.44
43.625,29.54
43.640625,31.57
43.65625,31.68
43.671875,30.09
43.6875,27.14
43.703125,23.33
43.71875,19.32
43.734375,15.78
43.75,13.28
43.765625,12.18
43.78125,12.53
43.796875,14.13
43.8125,16.53
43.828125,19.22
43.84375,21.70
43.859375,23.62
43.875,24.79
43.890625,25.16
43.90625,24.76
43.921875,23.64
43.9375,21.87
43.953125,19.57
43.96875,16.89
43.984375,14.06
44.0,11.27
44.015625,8.62
44.03125,6.13
44.046875,3.73
44.0625,1.37
44.078125,-1.01
44.09375,-3.42
44.109375,-5.86
44.125,-8.33
44.140625,-10.80
44.15625,-13.21
44.171875,-15.43
44.1875,-17.40
44.203125,-19.13
44.21875,-20.80
44.234375,-22.72
44.25,-25.25
44.265625,-28.66
44.28125,-33.00
44.296875,-37.99
44.3125,-43.03
44.328125,-47.21
44.34375,-49.57
44.359375,-49.28
44.375,-45.91
44.390625,-39.55
44.40625,-30.74
44.421875,-20.35
44.4375,-9.35
44.453125,1.36
44.46875,11.06
44.484375,19.20
44.5,25.44
44.515625,29.60
44.53125,31.73
44.546875,32.04
44.5625,30.88
44.578125,28.68
44.59375,25.85
44.609375,22.83
44.625,20.03
44.640625,17.83
44.65625,16.56
44.671875,16.35
44.6875,17.18
44.703125,18.84
44.71875,20.96
44.734375,23.16
44.75,25.06
44.765625,26.36
44.78125,26.84
44.796875,26.36
44.8125,24.91
44.828125,22.63
44.84375,19.78
44.859375,16.73
44.875,13.80
44.890625,11.23
44.90625,9.07
44.921875,7.20
44.9375,5.41
44.953125,3.52
44.96875,1.46
44.984375,-0.71
45.0,-2.87
45.015625,-4.89
45.03125,-6.75
45.046875,-8.52
45.0625,-10.33
45.078125,-12.29
45.09375,-14.43
45.109375,-16.74
45.125,-19.10
45.140625,-21.41
45.15625,-23.60
45.171875,-25.70
45.1875,-27.78
45.203125,-30.03
45.21875,-32.66
45.234375,-35.88
45.25,-39.78
45.265625,-44.22
45.28125,-48.81
45.296875,-52.83
45.3125,-55.41
45.328125,-55.69
45.34375,-53.02
45.359375,-47.18
45.375,-38.44
45.390625,-27.54
45.40625,-15.54
45.421875,-3.62
45.4375,7.13
45.453125,15.92
45.46875,22.35
45.484375,26.42
45.5,28.39
45.515625,28.69
45.53125,27.78
45.546875,26.08
45.5625,23.96
45.578125,21.76
45.59375,19.79
45.609375,18.34
45.625,17.64
45.640625,17.77
45.65625,18.70
45.671875,20.24
45.6875,22.18
45.703125,24.29
45.71875,26.38
45.734375,28.28
45.75,29.87
45.765625,30.94
45.78125,31.30
45.796875,30.81
45.8125,29.42
45.828125,27.29
45.84375,24.70
45.859375,22.00
45.875,19.48
45.890625,17.26
45.90625,15.27
45.921875,13.37
45.9375,11.40
45.953125,9.27
45.96875,6.99
45.984375,4.62
46.0,2.23
46.015625,-0.06
46.03125,-2.13
46.046875,-3.90
46.0625,-5.32
46.078125,-6.51
46.09375,-7.74
46.109375,-9.28
46.125,-11.36
46.140625,-14.01
46.15625,-17.06
46.171875,-20.19
46.1875,-23.08
46.203125,-25.56
46.21875,-27.64
46.234375,-29.52
46.25,-31.56
46.265625,-34.15
46.28125,-37.54
46.296875,-41.72
46.3125,-46.28
46.328125,-50.40
46.34375,-52.99
46.359375,-52.96
46.375,-49.63
46.390625,-42.89
46.40625,-33.29
46.421875,-21.90
46.4375,-9.97
46.453125,1.35
46.46875,11.26
46.484375,19.35
46.5,25.58
46.515625,30.12
46.53125,33.26
46.546875,35.19
46.5625,36.02
46.578125,35.74
46.59375,34.29
46.609375,31.76
46.625,28.41
46.640625,24.75
46.65625,21.37
46.671875,18.83
46.6875,17.45
46.703125,17.31
46.71875,18.19
46.734375,19.78
46.75,21.69
46.765625,23.58
46.78125,25.19
46.796875,26.32
46.8125,26.86
46.828125,26.79
46.84375,26.12
46.859375,24.89
46.875,23.10
46.890625,20.78
46.90625,17.98
46.921875,14.84
46.9375,11.55
46.953125,8.34
46.96875,5.41
46.984375,2.83
47.0,0.55
47.015625,-1.55
47.03125,-3.61
47.046875,-5.68
47.0625,-7.69
47.078125,-9.54
47.09375,-11.14
47.109375,-12.55
47.125,-13.95
47.140625,-15.61
47.15625,-17.71
47.171875,-20.26
47.1875,-23.10
47.203125,-25.93
47.21875,-28.52
47.234375,-30.74
47.25,-32.62
47.265625,-34.29
47.28125,-35.96
47.296875,-37.84
47.3125,-40.21
47.328125,-43.29
47.34375,-47.15
47.359375,-51.56
47.375,-55.88
47.390625,-59.11
47.40625,-60.18
47.421875,-58.23
47.4375,-52.92
47.453125,-44.50
47.46875,-33.77
47.484375,-21.79
47.5,-9.72
47.515625,1.44
47.53125,10.95
47.546875,18.36
47.5625,23.52
47.578125,26.56
47.59375,27.74
47.609375,27.44
47.625,26.04
47.640625,23.89
47.65625,21.34
47.671875,18.77
47.6875,16.57
47.703125,15.09
47.71875,14.53
47.734375,14.91
47.75,16.08
47.765625,17.84
47.78125,19.97
47.796875,22.30
47.8125,24.65
47.828125,26.75
47.84375,28.29
47.859375,28.93
47.875,28.45
47.890625,26.88
47.90625,24.52
47.921875,21.81
47.9375,19.20
47.953125,16.95
47.96875,15.06
47.984375,13.36
48.0,11.62
48.015625,9.68
48.03125,7.52
48.046875,5.25
48.0625,3.03
48.078125,1.01
48.09375,-0.73
48.109375,-2.22
48.125,-3.55
48.140625,-4.88
48.15625,-6.40
48.171875,-8.24
48.1875,-10.47
48.203125,-13.05
48.21875,-15.80
48.234375,-18.55
48.25,-21.15
48.265625,-23.57
48.28125,-25.94
48.296875,-28.50
48.3125,-31.52
48.328125,-35.20
48.34375,-39.51
48.359375,-44.11
48.375,-48.36
48.390625,-51.45
48.40625,-52.51
48.421875,-50.88
48.4375,-46.26
48.453125,-38.79
48.46875,-29.07
48.484375,-18.05
48.5,-6.77
48.515625,3.77
48.53125,12.85
48.546875,20.09
48.5625,25.34
48.578125,28.63
48.59375,30.08
48.609375,29.77
48.625,27.95
48.640625,24.99
48.65625,21.42
48.671875,17.89
48.6875,14.97
48.703125,13.04
48.71875,12.27
48.734375,12.63
48.75,13.97
48.765625,16.01
48.78125,18.47
48.796875,20.97
48.8125,23.15
48.828125,24.70
48.84375,25.44
48.859375,25.32
48.875,24.38
48.890625,22.74
48.90625,20.58
48.921875,18.15
48.9375,15.70
48.953125,13.43
48.96875,11.41
48.984375,9.52
49.0,7.59
49.015625,5.42
49.03125,3.00
49.046875,0.47
49.0625,-1.94
49.078125,-4.05
49.09375,-5.81
49.109375,-7.37
49.125,-8.93
49.140625,-10.74
49.15625,-12.94
49.171875,-15.57
49.1875,-18.51
49.203125,-21.58
49.21875,-24.54
49.234375,-27.19
49.25,-29.45
49.265625,-31.45
49.28125,-33.43
49.296875,-35.74
49.3125,-38.68
49.328125,-42.38
49.34375,-46.70
49.359375,-51.16
49.375,-55.02
49.390625,-57.38
49.40625,-57.36
49.421875,-54.31
49.4375,-48.03
49.453125,-38.82
49.46875,-27.47
49.484375,-15.10
49.5,-2.88
49.515625,8.17
49.53125,17.32
49.546875,24.24
49.5625,28.88
49.578125,31.45
49.59375,32.25
49.609375,31.66
49.625,30.05
49.640625,27.82
49.65625,25.38
49.671875,23.10
49.6875,21.30
49.703125,20.20
49.71875,19.88
49.734375,20.36
49.75,21.55
49.765625,23.35
49.78125,25.62
49.796875,28.14
49.8125,30.61
49.828125,32.68
49.84375,33.93
49.859375,34.06
49.875,32.96
49.890625,30.79
49.90625,27.93
49.921875,24.85
49.9375,21.98
49.953125,19.54
49.96875,17.48
49.984375,15.60
50.0,13.64
50.015625,11.41
50.03125,8.88
50.046875,6.14
50.0625,3.39
50.078125,0.81
50.09375,-1.45
50.109375,-3.32
50.125,-4.82
50.140625,-6.08
50.15625,-7.31
50.171875,-8.76
50.1875,-10.64
50.203125,-13.00
50.21875,-15.73
50.234375,-18.60
50.25,-21.38
50.265625,-23.90
50.28125,-26.22
50.296875,-28.57
50.3125,-31.31
50.328125,-34.73
50.34375,-38.91
50.359375,-43.61
50.375,-48.21
50.390625,-51.83
50.40625,-53.46
50.421875,-52.28
50.4375,-47.81
50.453125,-40.12
50.46875,-29.86
50.484375,-18.06
50.5,-5.93
50.515625,5.41
50.53125,15.15
50.546875,22.87
50.5625,28.46
50.578125,32.06
50.59375,33.88
50.609375,34.14
50.625,33.10
50.640625,31.02
50.65625,28.28
50.671875,25.36
50.6875,22.78
50.703125,20.97
50.71875,20.17
50.734375,20.42
50.75,21.53
50.765625,23.21
50.78125,25.16
50.796875,27.14
50.8125,28.94
50.828125,30.39
50.84375,31.28
50.859375,31.45
50.875,30.78
50.890625,29.27
50.90625,27.08
50.921875,24.46
50.9375,21.69
50.953125,19.04
50.96875,16.65
50.984375,14.56
51.0,12.72
51.015625,10.97
51.03125,9.16
51.046875,7.18
51.0625,5.02
51.078125,2.77
51.09375,0.56
51.109375,-1.45
51.125,-3.21
51.140625,-4.80
51.15625,-6.37
51.171875,-8.15
51.1875,-10.29
51.203125,-12.84
51.21875,-15.71
51.234375,-18.66
51.25,-21.44
51.265625,-23.87
51.28125,-25.94
51.296875,-27.89
51.3125,-30.10
51.328125,-32.99
51.34375,-36.76
51.359375,-41.20
51.375,-45.67
51.390625,-49.14
51.40625,-50.51
51.421875,-48.89
51.4375,-43.90
51.453125,-35.78
51.46875,-25.33
51.484375,-13.72
51.5,-2.14
51.515625,8.40
51.53125,17.27
51.546875,24.17
51.5625,29.06
51.578125,32.02
51.59375,33.21
51.609375,32.81
51.625,31.08
51.640625,28.39
51.65625,25.25
51.671875,22.17
51.6875,19.59
51.703125,17.80
51.71875,16.92
51.734375,16.95
51.75,17.81
51.765625,19.35
51.78125,21.38
51.796875,23.58
51.8125,25.60
51.828125,27.02
51.84375,27.54
51.859375,27.00
51.875,25.48
51.890625,23.23
51.90625,20.60
51.921875,17.89
51.9375,15.32
51.953125,12.96
51.96875,10.81
51.984375,8.80
52.0,6.84
52.015625,4.90
52.03125,2.97
52.046875,1.05
52.0625,-0.81
52.078125,-2.57
52.09375,-4.17
52.109375,-5.59
52.125,-6.86
52.140625,-8.09
52.15625,-9.47
52.171875,-11.14
52.1875,-13.19
52.203125,-15.52
52.21875,-17.96
52.234375,-20.24
52.25,-22.21
52.265625,-23.89
52.28125,-25.49
52.296875,-27.43
52.3125,-30.13
52.328125,-33.84
52.34375,-38.41
52.359375,-43.21
52.375,-47.23
52.390625,-49.32
52.40625,-48.51
52.421875,-44.38
52.4375,-37.16
52.453125,-27.69
52.46875,-17.09
52.484375,-6.47
52.5,3.29
52.515625,11.68
52.53125,18.46
52.546875,23.53
52.5625,26.83
52.578125,28.34
52.59375,28.12
52.609375,26.35
52.625,23.46
52.640625,19.97
52.65625,16.52
52.671875,13.64
52.6875,11.71
52.703125,10.89
52.71875,11.15
52.734375,12.31
52.75,14.13
52.765625,16.34
52.78125,18.64
52.796875,20.78
52.8125,22.45
52.828125,23.42
52.84375,23.53
52.859375,22.74
52.875,21.17
52.890625,19.00
52.90625,16.51
52.921875,13.91
52.9375,11.39
52.953125,9.02
52.96875,6.86
52.984375,4.86
53.0,2.97
53.015625,1.10
53.03125,-0.86
53.046875,-2.95
53.0625,-5.18
53.078125,-7.50
53.09375,-9.81
53.109375,-12.06
53.125,-14.28
53.140625,-16.56
53.15625,-18.98
53.171875,-21.52
53.1875,-24.06
53.203125,-26.40
53.21875,-28.39
53.234375,-30.03
53.25,-31.58
53.265625,-33.47
53.28125,-36.13
53.296875,-39.74
53.3125,-44.14
53.328125,-48.67
53.34375,-52.37
53.359375,-54.16
53.375,-53.16
53.390625,-48.95
53.40625,-41.65
53.421875,-31.89
53.4375,-20.67
53.453125,-9.11
53.46875,1.78
53.484375,11.22
53.5,18.74
53.515625,24.18
53.53125,27.62
53.546875,29.29
53.5625,29.50
53.578125,28.58
53.59375,26.83
53.609375,24.53
53.625,22.00
53.640625,19.57
53.65625,17.61
53.671875,16.41
53.6875,16.17
53.703125,16.88
53.71875,18.35
53.734375,20.24
53.75,22.19
53.765625,23.89
53.78125,25.15
53.796875,25.89
53.8125,26.08
53.828125,25.71
53.84375,24.75
53.859375,23.21
53.875,21.17
53.890625,18.81
53.90625,16.30
53.921875,13.81
53.9375,11.44
53.953125,9.19
53.96875,7.03
53.984375,4.94
54.0,2.97
54.015625,1.15
54.03125,-0.46
54.046875,-1.89
54.0625,-3.27
54.078125,-4.77
54.09375,-6.59
54.109375,-8.83
54.125,-11.47
54.140625,-14.34
54.15625,-17.19
54.171875,-19.80
54.1875,-22.09
54.203125,-24.12
54.21875,-26.08
54.234375,-28.25
54.25,-30.86
54.265625,-34.12
54.28125,-38.10
54.296875,-42.69
54.3125,-47.44
54.328125,-51.56
54.34375,-54.00
54.359375,-53.72
54.375,-50.03
54.390625,-42.83
54.40625,-32.78
54.421875,-21.02
54.4375,-8.93
54.453125,2.28
54.46875,11.76
54.484375,19.12
54.5,24.39
54.515625,27.78
54.53125,29.66
54.546875,30.30
54.5625,29.95
54.578125,28.75
54.59375,26.90
54.609375,24.62
54.625,22.23
54.640625,20.10
54.65625,18.56
54.671875,17.85
54.6875,18.04
54.703125,19.11
54.71875,20.88
54.734375,23.12
54.75,25.52
54.765625,27.71
54.78125,29.34
54.796875,30.11
54.8125,29.86
54.828125,28.64
54.84375,26.68
54.859375,24.28
54.875,21.78
54.890625,19.45
54.90625,17.41
54.921875,15.65
54.9375,14.07
54.953125,12.51
54.96875,10.85
54.984375,9.00
55.0,6.96
55.015625,4.83
55.03125,2.71
55.046875,0.70
55.0625,-1.18
55.078125,-2.99
55.09375,-4.87
55.109375,-6.94
55.125,-9.26
55.140625,-11.83
55.15625,-14.53
55.171875,-17.20
55.1875,-19.71
55.203125,-22.01
55.21875,-24.19
55.234375,-26.43
55.25,-29.03
55.265625,-32.25
55.28125,-36.23
55.296875,-40.77
55.3125,-45.27
55.328125,-48.78
55.34375,-50.18
55.359375,-48.60
55.375,-43.67
55.390625,-35.68
55.40625,-25.48
55.421875,-14.22
55.4375,-2.99
55.453125,7.34
55.46875,16.18
55.484375,23.24
55.5,28.36
55.515625,31.49
55.53125,32.70
55.546875,32.21
55.5625,30.31
55.578125,27.41
55.59375,24.01
55.609375,20.59
55.625,17.66
55.640625,15.55
55.65625,14.46
55.671875,14.37
55.6875,15.08
55.703125,16.37
55.71875,18.05
55.734375,19.97
55.75,21.97
55.765625,23.83
55.78125,25.23
55.796875,25.89
55.8125,25.66
55.828125,24.57
55.84375,22.85
55.859375,20.80
55.875,18.68
55.890625,16.68
55.90625,14.83
55.921875,13.11
55.9375,11.46
55.953125,9.78
55.96875,7.98
55.984375,5.99
56.0,3.86
56.015625,1.70
56.03125,-0.31
56.046875,-2.06
56.0625,-3.52
56.078125,-4.81
56.09375,-6.14
56.109375,-7.69
56.125,-9.59
56.140625,-11.84
56.15625,-14.36
56.171875,-17.02
56.1875,-19.65
56.203125,-22.15
56.21875,-24.49
56.234375,-26.78
56.25,-29.23
56.265625,-32.13
56.28125,-35.65
56.296875,-39.73
56.3125,-43.95
56.328125,-47.58
56.34375,-49.75
56.359375,-49.62
56.375,-46.63
56.390625,-40.67
56.40625,-32.11
56.421875,-21.73
56.4375,-10.58
56.453125,0.25
56.46875,9.81
56.484375,17.43
56.5,22.80
56.515625,25.92
56.53125,26.99
56.546875,26.35
56.5625,24.40
56.578125,21.57
56.59375,18.36
56.609375,15.26
56.625,12.75
56.640625,11.17
56.65625,10.72
56.671875,11.39
56.6875,13.00
56.703125,15.21
56.71875,17.63
56.734375,19.88
56.75,21.70
56.765625,22.88
56.78125,23.36
56.796875,23.11
56.8125,22.21
56.828125,20.78
56.84375,19.00
56.859375,17.05
56.875,15.11
56.890625,13.29
56.90625,11.59
56.921875,9.89
56.9375,8.09
56.953125,6.09
56.96875,3.86
56.984375,1.44
57.0,-1.05
57.015625,-3.53
57.03125,-5.91
57.046875,-8.14
57.0625,-10.24
57.078125,-12.31
57.09375,-14.43
57.109375,-16.68
57.125,-19.04
57.140625,-21.45
57.15625,-23.80
57.171875,-26.04
57.1875,-28.21
57.203125,-30.44
57.21875,-32.94
57.234375,-35.92
57.25,-39.53
57.265625,-43.79
57.28125,-48.44
57.296875,-52.90
57.3125,-56.26
57.328125,-57.48
57.34375,-55.71
57.359375,-50.58
57.375,-42.32
57.390625,-31.80
57.40625,-20.17
57.421875,-8.60
57.4375,2.01
57.453125,11.07
57.46875,18.31
57.484375,23.63
57.5,27.03
57.515625,28.64
57.53125,28.68
57.546875,27.53
57.5625,25.65
57.578125,23.49
57.59375,21.40
57.609375,19.60
57.625,18.19
57.640625,17.21
57.65625,16.74
57.671875,16.87
57.6875,17.70
57.703125,19.21
57.71875,21.20
57.734375,23.25
57.75,24.88
57.765625,25.63
57.78125,25.28
57.796875,23.89
57.8125,21.68
57.828125,18.98
57.84375,16.03
57.859375,13.02
57.875,10.02
57.890625,7.08
57.90625,4.23
57.921875,1.46
57.9375,-1.29
57.953125,-4.11
57.96875,-7.04
57.984375,-10.11
58.0,-13.24
58.015625,-16.38
58.03125,-19.54
58.046875,-22.79
58.0625,-26.22
58.078125,-29.84
58.09375,-33.53
58.109375,-37.04
58.125,-40.06
58.140625,-42.37
58.15625,-43.86
58.171875,-44.56
58.1875,-44.61
58.203125,-44.29
58.21875,-43.93
58.234375,-43.86
58.25,-44.25
58.265625,-44.98
58.28125,-45.52
58.296875,-45.04
58.3125,-42.58
58.328125,-37.41
58.34375,-29.29
58.359375,-18.61
58.375,-6.26
58.390625,6.55
58.40625,18.64
58.421875,29.12
58.4375,37.51
58.453125,43.74
58.46875,47.98
58.484375,50.47
58.5,51.41
58.515625,50.96
58.53125,49.30
58.546875,46.69
58.5625,43.53
58.578125,40.24
58.59375,37.19
58.609375,34.66
58.625,32.78
58.640625,31.59
58.65625,31.12
58.671875,31.36
58.6875,32.23
58.703125,33.56
58.71875,35.08
58.734375,36.42
58.75,37.26
58.765625,37.30
58.78125,36.40
58.796875,34.55
58.8125,31.92
58.828125,28.84
58.84375,25.69
58.859375,22.83
58.875,20.41
58.890625,18.38
58.90625,16.54
58.921875,14.61
58.9375,12.41
58.953125,9.94
58.96875,7.30
58.984375,4.71
59.0,2.32
59.015625,0.21
59.03125,-1.65
59.046875,-3.38
59.0625,-5.12
59.078125,-7.00
59.09375,-9.09
59.109375,-11.46
59.125,-14.11
59.140625,-16.97
59.15625,-19.93
59.171875,-22.82
59.1875,-25.52
59.203125,-28.01
59.21875,-30.45
59.234375,-33.15
59.25,-36.44
59.265625,-40.44
59.28125,-44.88
59.296875,-49.04
59.3125,-51.85
59.328125,-52.25
59.34375,-49.46
59.359375,-43.34
59.375,-34.35
59.390625,-23.46
59.40625,-11.85
59.421875,-0.65
59.4375,9.29
59.453125,17.44
59.46875,23.60
59.484375,27.79
59.5,30.18
59.515625,31.05
59.53125,30.74
59.546875,29.59
59.5625,27.94
59.578125,26.10
59.59375,24.35
59.609375,22.94
59.625,22.04
59.640625,21.70
59.65625,21.87
59.671875,22.47
59.6875,23.39
59.703125,24.56
59.71875,25.94
59.734375,27.40
59.75,28.71
59.765625,29.57
59.78125,29.68
59.796875,28.87
59.8125,27.18
59.828125,24.83
59.84375,22.18
59.859375,19.53
59.875,17.10
59.890625,15.01
59.90625,13.22
59.921875,11.62
59.9375,10.03
59.953125,8.30
59.96875,6.38
59.984375,4.34
60.0,2.42
60.015625,0.83
60.03125,-0.31
60.046875,-1.15
60.0625,-1.97
60.078125,-3.15
60.09375,-4.93
60.109375,-7.31
60.125,-10.10
60.140625,-12.96
60.15625,-15.62
60.171875,-17.90
60.1875,-19.78
60.203125,-21.38
60.21875,-22.93
60.234375,-24.71
60.25,-27.00
60.265625,-30.05
60.28125,-33.91
60.296875,-38.36
60.3125,-42.78
60.328125,-46.28
60.34375,-47.83
60.359375,-46.65
60.375,-42.41
60.390625,-35.36
60.40625,-26.30
60.421875,-16.27
60.4375,-6.31
60.453125,2.76
60.46875,10.44
60.484375,16.46
60.5,20.76
60.515625,23.33
60.53125,24.23
60.546875,23.64
60.5625,21.84
60.578125,19.26
60.59375,16.41
60.609375,13.78
60.625,11.75
60.640625,10.54
60.65625,10.19
60.671875,10.69
60.6875,11.95
60.703125,13.90
60.71875,16.33
60.734375,18.97
60.75,21.39
60.765625,23.17
60.78125,24.00
60.796875,23.79
60.8125,22.70
60.828125,21.02
60.84375,19.04
60.859375,16.94
60.875,14.80
60.890625,12.63
60.90625,10.46
60.921875,8.34
60.9375,6.34
60.953125,4.51
60.96875,2.81
60.984375,1.16
61.0,-0.51
61.015625,-2.24
61.03125,-4.03
61.046875,-5.84
61.0625,-7.65
61.078125,-9.48
61.09375,-11.31
61.109375,-13.17
61.125,-15.06
61.140625,-16.97
61.15625,-18.86
61.171875,-20.75
61.1875,-22.71
61.203125,-24.86
61.21875,-27.42
61.234375,-30.53
61.25,-34.19
61.265625,-38.12
61.28125,-41.71
61.296875,-44.10
61.3125,-44.41
61.328125,-42.02
61.34375,-36.76
61.359375,-29.04
61.375,-19.68
61.390625,-9.74
61.40625,-0.21
61.421875,8.14
61.4375,14.86
61.453125,19.75
61.46875,22.84
61.484375,24.24
61.5,24.18
61.515625,22.91
61.53125,20.76
61.546875,18.08
61.5625,15.30
61.578125,12.82
61.59375,11.02
61.609375,10.16
61.625,10.32
61.640625,11.41
61.65625,13.18
61.671875,15.31
61.6875,17.49
61.703125,19.44
61.71875,20.94
61.734375,21.79
61.75,21.83
61.765625,20.97
61.78125,19.30
61.796875,17.01
61.8125,14.45
61.828125,11.98
61.84375,9.87
61.859375,8.18
61.875,6.79
61.890625,5.49
61.90625,4.03
61.921875,2.28
61.9375,0.20
61.953125,-2.14
61.96875,-4.63
61.984375,-7.15
62.0,-9.59
62.015625,-11.88
62.03125,-14.02
62.046875,-16.08
62.0625,-18.14
62.078125,-20.29
62.09375,-22.56
62.109375,-24.87
62.125,-27.12
62.140625,-29.25
62.15625,-31.30
62.171875,-33.51
62.1875,-36.19
62.203125,-39.64
62.21875,-43.89
62.234375,-48.61
62.25,-53.06
62.265625,-56.23
62.28125,-57.12
62.296875,-55.01
62.3125,-49.68
62.328125,-41.50
62.34375,-31.29
62.359375,-20.14
62.375,-9.12
62.390625,0.90
62.40625,9.36
62.421875,16.03
62.4375,20.91
62.453125,24.11
62.46875,25.85
62.484375,26.32
62.5,25.78
62.515625,24.50
62.53125,22.83
62.546875,21.10
62.5625,19.60
62.578125,18.51
62.59375,17.94
62.609375,17.89
62.625,18.34
62.640625,19.26
62.65625,20.55
62.671875,22.09
62.6875,23.65
62.703125,25.00
62.71875,25.90
62.734375,26.20
62.75,25.86
62.765625,24.90
62.78125,23.42
62.796875,21.52
62.8125,19.34
62.828125,16.99
62.84375,14.57
62.859375,12.17
62.875,9.81
62.890625,7.51
62.90625,5.22
62.921875,2.93
62.9375,0.65
62.953125,-1.62
62.96875,-3.80
62.984375,-5.88
63.0,-7.85
63.015625,-9.78
63.03125,-11.78
63.046875,-13.96
63.0625,-16.35
63.078125,-18.90
63.09375,-21.45
63.109375,-23.87
63.125,-26.12
63.140625,-28.31
63.15625,-30.78
63.171875,-33.89
63.1875,-37.83
63.203125,-42.46
63.21875,-47.19
63.234375,-51.08
63.25,-53.09
63.265625,-52.36
63.28125,-48.48
63.296875,-41.59
63.3125,-32.28
63.328125,-21.49
63.34375,-10.28
63.359375,0.36
63.375,9.66
63.390625,17.13
63.40625,22.58
63.421875,26.10
63.4375,27.97
63.453125,28.57
63.46875,28.27
63.484375,27.40
63.5,26.21
63.515625,24.88
63.53125,23.61
63.546875,22.56
63.5625,21.89
63.578125,21.68
63.59375,21.99
63.609375,22.79
63.625,24.00
63.640625,25.47
63.65625,27.00
63.671875,28.35
63.6875,29.22
63.703125,29.41
63.71875,28.81
63.734375,27.51
63.75,25.72
63.765625,23.72
63.78125,21.74
63.796875,19.91
63.8125,18.20
63.828125,16.52
63.84375,14.74
63.859375,12.79
63.875,10.70
63.890625,8.49
63.90625,6.23
63.921875,3.98
63.9375,1.82
63.953125,-0.18
63.96875,-1.99
63.984375,-3.64
64.0,-5.24
64.015625,-6.96
64.03125,-8.94
64.046875,-11.26
64.0625,-13.90
64.078125,-16.73
64.09375,-19.58
64.109375,-22.30
64.125,-24.84
64.140625,-27.22
64.15625,-29.64
64.171875,-32.38
64.1875,-35.71
64.203125,-39.72
64.21875,-44.15
64.234375,-48.33
64.25,-51.25
64.265625,-51.89
64.28125,-49.49
64.296875,-43.87
64.3125,-35.46
64.328125,-25.21
64.34375,-14.26
64.359375,-3.69
64.375,5.69
64.390625,13.41
64.40625,19.31
64.421875,23.44
64.4375,25.96
64.453125,27.11
64.46875,27.22
64.484375,26.59
64.5,25.52
64.515625,24.25
64.53125,22.94
64.546875,21.72
64.5625,20.73
64.578125,20.12
64.59375,20.06
64.609375,20.66
64.625,21.86
64.640625,23.49
64.65625,25.27
64.671875,26.90
64.6875,28.15
64.703125,28.84
64.71875,28.89
64.734375,28.27
64.75,27.01
64.765625,25.23
64.78125,23.17
64.796875,21.06
64.8125,19.11
64.828125,17.37
64.84375,15.81
64.859375,14.30
64.875,12.72
64.890625,11.05
64.90625,9.29
64.921875,7.48
64.9375,5.62
64.953125,3.69
64.96875,1.70
64.984375,-0.31
65.0,-2.25
65.015625,-4.04
65.03125,-5.64
65.046875,-7.15
65.0625,-8.71
65.078125,-10.54
65.09375,-12.75
65.109375,-15.35
65.125,-18.21
65.140625,-21.07
65.15625,-23.69
65.171875,-25.94
65.1875,-27.84
65.203125,-29.64
65.21875,-31.67
65.234375,-34.22
65.25,-37.46
65.265625,-41.35
65.28125,-45.57
65.296875,-49.53
65.3125,-52.47
65.328125,-53.56
65.34375,-52.06
65.359375,-47.58
65.375,-40.21
65.390625,-30.53
65.40625,-19.52
65.421875,-8.31
65.4375,2.08
65.453125,10.90
65.46875,17.73
65.484375,22.50
65.5,25.34
65.515625,26.54
65.53125,26.44
65.546875,25.38
65.5625,23.67
65.578125,21.60
65.59375,19.45
65.609375,17.53
65.625,16.14
65.640625,15.47
65.65625,15.62
65.671875,16.52
65.6875,17.98
65.703125,19.80
65.71875,21.73
65.734375,23.59
65.75,25.14
65.765625,26.17
65.78125,26.52
65.796875,26.14
65.8125,25.14
65.828125,23.73
65.84375,22.19
65.859375,20.72
65.875,19.36
65.890625,18.04
65.90625,16.66
65.921875,15.12
65.9375,13.43
65.953125,11.65
65.96875,9.87
65.984375,8.15
66.0,6.50
66.015625,4.86
66.03125,3.17
66.046875,1.40
66.0625,-0.41
66.078125,-2.20
66.09375,-3.90
66.109375,-5.54
66.125,-7.24
66.140625,-9.12
66.15625,-11.27
66.171875,-13.65
66.1875,-16.16
66.203125,-18.63
66.21875,-20.96
66.234375,-23.12
66.25,-25.21
66.265625,-27.34
66.28125,-29.68
66.296875,-32.40
66.3125,-35.65
66.328125,-39.52
66.34375,-43.89
66.359375,-48.37
66.375,-52.20
66.390625,-54.41
66.40625,-54.06
66.421875,-50.58
66.4375,-43.98
66.453125,-34.88
66.46875,-24.35
66.484375,-13.56
66.5,-3.53
66.515625,5.10
66.53125,12.05
66.546875,17.29
66.5625,20.87
66.578125,22.87
66.59375,23.38
66.609375,22.56
66.625,20.73
66.640625,18.31
66.65625,15.81
66.671875,13.65
66.6875,12.15
66.703125,11.41
66.71875,11.44
66.734375,12.15
66.75,13.49
66.765625,15.40
66.78125,17.79
66.796875,20.46
66.8125,23.09
66.828125,25.25
66.84375,26.56
66.859375,26.76
66.875,25.85
66.890625,24.07
66.90625,21.80
66.921875,19.42
66.9375,17.17
66.953125,15.12
66.96875,13.23
66.984375,11.40
67.0,9.53
67.015625,7.60
67.03125,5.61
67.046875,3.57
67.0625,1.49
67.078125,-0.61
67.09375,-2.67
67.109375,-4.64
67.125,-6.51
67.140625,-8.32
67.15625,-10.22
67.171875,-12.34
67.1875,-14.75
67.203125,-17.36
67.21875,-19.95
67.234375,-22.31
67.25,-24.32
67.265625,-26.03
67.28125,-27.71
67.296875,-29.68
67.3125,-32.27
67.328125,-35.69
67.34375,-39.92
67.359375,-44.68
67.375,-49.40
67.390625,-53.24
67.40625,-55.27
67.421875,-54.67
67.4375,-50.96
67.453125,-44.15
67.46875,-34.78
67.484375,-23.76
67.5,-12.17
67.515625,-1.02
67.53125,8.88
67.546875,17.00
67.5625,23.07
67.578125,27.09
67.59375,29.22
67.609375,29.73
67.625,28.91
67.640625,27.05
67.65625,24.46
67.671875,21.48
67.6875,18.55
67.703125,16.10
67.71875,14.53
67.734375,14.06
67.75,14.71
67.765625,16.28
67.78125,18.45
67.796875,20.88
67.8125,23.26
67.828125,25.32
67.84375,26.86
67.859375,27.73
67.875,27.82
67.890625,27.08
67.90625,25.56
67.921875,23.39
67.9375,20.80
67.953125,18.07
67.96875,15.42
67.984375,12.96
68.0,10.66
68.015625,8.38
68.03125,5.99
68.046875,3.48
68.0625,0.98
68.078125,-1.36
68.09375,-3.41
68.109375,-5.22
68.125,-6.96
68.140625,-8.85
68.15625,-11.01
68.171875,-13.42
68.1875,-15.97
68.203125,-18.58
68.21875,-21.19
68.234375,-23.83
68.25,-26.53
68.265625,-29.34
68.28125,-32.32
68.296875,-35.57
68.3125,-39.26
68.328125,-43.54
68.34375,-48.39
68.359375,-53.53
68.375,-58.32
68.390625,-61.86
68.40625,-63.13
68.421875,-61.31
68.4375,-55.99
68.453125,-47.36
68.46875,-36.16
68.484375,-23.55
68.5,-10.78
68.515625,1.11
68.53125,11.43
68.546875,19.84
68.5625,26.26
68.578125,30.73
68.59375,33.34
68.609375,34.27
68.625,33.82
68.640625,32.37
68.65625,30.33
68.671875,28.08
68.6875,25.94
68.703125,24.14
68.71875,22.90
68.734375,22.40
68.75,22.76
68.765625,23.99
68.78125,25.95
68.796875,28.38
68.8125,30.91
68.828125,33.19
68.84375,34.90
68.859375,35.76
68.875,35.58
68.890625,34.32
68.90625,32.05
68.921875,29.06
68.9375,25.72
68.953125,22.43
68.96875,19.49
68.984375,17.01
69.0,14.88
69.015625,12.87
69.03125,10.73
69.046875,8.34
69.0625,5.72
69.078125,3.05
69.09375,0.55
69.109375,-1.66
69.125,-3.63
69.140625,-5.55
69.15625,-7.63
69.171875,-10.03
69.1875,-12.76
69.203125,-15.68
69.21875,-18.61
69.234375,-21.42
69.25,-24.07
69.265625,-26.66
69.28125,-29.37
69.296875,-32.39
69.3125,-35.92
69.328125,-40.05
69.34375,-44.69
69.359375,-49.40
69.375,-53.47
69.390625,-55.93
69.40625,-55.82
69.421875,-52.52
69.4375,-45.86
69.453125,-36.30
69.46875,-24.69
69.484375,-12.14
69.5,0.24
69.515625,11.53
69.53125,21.07
69.546875,28.50
69.5625,33.69
69.578125,36.76
69.59375,37.96
69.609375,37.58
69.625,35.96
69.640625,33.44
69.65625,30.43
69.671875,27.37
69.6875,24.75
69.703125,22.93
69.71875,22.11
69.734375,22.33
69.75,23.42
69.765625,25.17
69.78125,27.37
69.796875,29.76
69.8125,32.02
69.828125,33.80
69.84375,34.72
69.859375,34.50
69.875,33.11
69.890625,30.76
69.90625,27.87
69.921875,24.89
69.9375,22.16
69.953125,19.78
69.96875,17.66
69.984375,15.58
70.0,13.31
70.015625,10.78
70.03125,8.05
70.046875,5.27
70.0625,2.61
70.078125,0.18
70.09375,-2.01
70.109375,-4.04
70.125,-6.05
70.140625,-8.18
70.15625,-10.55
70.171875,-13.17
70.1875,-15.97
70.203125,-18.80
70.21875,-21.47
70.234375,-23.84
70.25,-25.90
70.265625,-27.87
70.28125,-30.10
70.296875,-33.02
70.3125,-36.91
70.328125,-41.74
70.34375,-47.05
70.359375,-51.96
70.375,-55.33
70.390625,-56.06
70.40625,-53.37
70.421875,-47.04
70.4375,-37.49
70.453125,-25.69
70.46875,-12.88
70.484375,-0.31
70.5,10.97
70.515625,20.29
70.53125,27.35
70.546875,32.14
70.5625,34.84
70.578125,35.74
70.59375,35.10
70.609375,33.22
70.625,30.46
70.640625,27.29
70.65625,24.24
70.671875,21.84
70.6875,20.43
70.703125,20.12
70.71875,20.78
70.734375,22.09
70.75,23.79
70.765625,25.65
70.78125,27.55
70.796875,29.35
70.8125,30.83
70.828125,31.75
70.84375,31.86
70.859375,31.07
70.875,29.45
70.890625,27.21
70.90625,24.58
70.921875,21.74
70.9375,18.83
70.953125,15.92
70.96875,13.13
70.984375,10.55
71.0,8.25
71.015625,6.20
71.03125,4.31
71.046875,2.45
71.0625,0.54
71.078125,-1.43
71.09375,-3.41
71.109375,-5.39
71.125,-7.42
71.140625,-9.60
71.15625,-12.00
71.171875,-14.62
71.1875,-17.33
71.203125,-19.92
71.21875,-22.27
71.234375,-24.38
71.25,-26.46
71.265625,-28.90
71.28125,-32.05
71.296875,-36.10
71.3125,-40.92
71.328125,-45.93
71.34375,-50.25
71.359375,-52.81
71.375,-52.66
71.390625,-49.24
71.40625,-42.53
71.421875,-33.06
71.4375,-21.84
71.453125,-10.02
71.46875,1.31
71.484375,11.33
71.5,19.52
71.515625,25.64
71.53125,29.62
71.546875,31.51
71.5625,31.43
71.578125,29.69
71.59375,26.73
71.609375,23.14
71.625,19.55
71.640625,16.51
71.65625,14.39
71.671875,13.33
71.6875,13.32
71.703125,14.25
71.71875,15.95
71.734375,18.22
71.75,20.81
71.765625,23.40
71.78125,25.62
71.796875,27.13
71.8125,27.65
71.828125,27.09
71.84375,25.52
71.859375,23.13
71.875,20.23
71.890625,17.13
71.90625,14.08
71.921875,11.23
71.9375,8.66
71.953125,6.35
71.96875,4.30
71.984375,2.44
72.0,0.72
72.015625,-0.96
72.03125,-2.71
72.046875,-4.69
72.0625,-7.00
72.078125,-9.66
72.09375,-12.59
72.109375,-15.56
72.125,-18.37
72.140625,-20.86
72.15625,-22.98
72.171875,-24.86
72.1875,-26.72
72.203125,-28.86
72.21875,-31.59
72.234375,-35.10
72.25,-39.44
72.265625,-44.32
72.28125,-49.09
72.296875,-52.83
72.3125,-54.47
72.328125,-53.16
72.34375,-48.44
72.359375,-40.49
72.375,-30.05
72.390625,-18.25
72.40625,-6.34
72.421875,4.59
72.4375,13.74
72.453125,20.72
72.46875,25.47
72.484375,28.23
72.5,29.34
72.515625,29.16
72.53125,28.00
72.546875,26.14
72.5625,23.83
72.578125,21.35
72.59375,19.03
72.609375,17.21
72.625,16.15
72.640625,16.01
72.65625,16.77
72.671875,18.27
72.6875,20.27
72.703125,22.45
72.71875,24.47
72.734375,26.02
72.75,26.84
72.765625,26.78
72.78125,25.83
72.796875,24.11
72.8125,21.81
72.828125,19.19
72.84375,16.45
72.859375,13.71
72.875,11.02
72.890625,8.42
72.90625,5.92
72.921875,3.59
72.9375,1.45
72.953125,-0.54
72.96875,-2.49
72.984375,-4.56
73.0,-6.85
73.015625,-9.39
73.03125,-12.11
73.046875,-14.85
73.0625,-17.49
73.078125,-19.93
73.09375,-22.15
73.109375,-24.21
73.125,-26.24
73.140625,-28.46
73.15625,-31.13
73.171875,-34.48
73.1875,-38.58
73.203125,-43.16
73.21875,-47.59
73.234375,-50.93
73.25,-52.16
73.265625,-50.52
73.28125,-45.72
73.296875,-38.01
73.3125,-28.13
73.328125,-17.10
73.34375,-5.95
73.359375,4.43
73.375,13.38
73.390625,20.50
73.40625,25.60
73.421875,28.71
73.4375,30.00
73.453125,29.83
73.46875,28.60
73.484375,26.77
73.5,24.73
73.515625,22.81
73.53125,21.24
73.546875,20.21
73.5625,19.79
73.578125,20.06
73.59375,20.98
73.609375,22.48
73.625,24.35
73.640625,26.35
73.65625,28.16
73.671875,29.45
73.6875,29.95
73.703125,29.52
73.71875,28.16
73.734375,26.06
73.75,23.50
73.765625,20.76
73.78125,18.00
73.796875,15.24
73.8125,12.38
73.828125,9.29
73.84375,6.01
73.859375,2.70
73.875,-0.37
73.890625,-2.97
73.90625,-5.02
73.921875,-6.64
73.9375,-8.11
73.953125,-9.71
73.96875,-11.65
73.984375,-13.94
74.0,-16.45
74.015625,-18.97
74.03125,-21.29
74.046875,-23.32
74.0625,-25.10
74.078125,-26.81
74.09375,-28.76
74.109375,-31.25
74.125,-34.50
74.140625,-38.52
74.15625,-42.97
74.171875,-47.15
74.1875,-50.10
74.203125,-50.78
74.21875,-48.35
74.234375,-42.50
74.25,-33.54
74.265625,-22.40
74.28125,-10.36
74.296875,1.30
74.3125,11.52
74.328125,19.65
74.34375,25.48
74.359375,29.12
74.375,30.88
74.390625,31.18
74.40625,30.42
74.421875,29.01
74.4375,27.26
74.453125,25.41
74.46875,23.65
74.484375,22.13
74.5,21.02
74.515625,20.49
74.53125,20.66
74.546875,21.54
74.5625,23.02
74.578125,24.83
74.59375,26.66
74.609375,28.21
74.625,29.24
74.640625,29.59
74.65625,29.17
74.671875,27.96
74.6875,26.01
74.703125,23.49
74.71875,20.68
74.734375,17.92
74.75,15.46
74.765625,13.42
74.78125,11.70
74.796875,10.07
74.8125,8.30
74.828125,6.24
74.84375,3.92
74.859375,1.46
74.875,-0.99
74.890625,-3.33
74.90625,-5.58
74.921875,-7.79
74.9375,-10.04
74.953125,-12.38
74.96875,-14.77
74.984375,-17.13
75.0,-19.38
75.015625,-21.49
75.03125,-23.49
75.046875,-25.52
75.0625,-27.78
75.078125,-30.51
75.09375,-33.88
75.109375,-37.90
75.125,-42.31
75.140625,-46.48
75.15625,-49.56
75.171875,-50.55
75.1875,-48.71
75.203125,-43.71
75.21875,-35.83
75.234375,-25.87
75.25,-14.96
75.265625,-4.25
75.28125,5.34
75.296875,13.23
75.3125,19.18
75.328125,23.19
75.34375,25.43
75.359375,26.15
75.375,25.61
75.390625,24.12
75.40625,22.00
75.421875,19.59
75.4375,17.21
75.453125,15.21
75.46875,13.85
75.484375,13.28
75.5,13.51
75.515625,14.42
75.53125,15.83
75.546875,17.55
75.5625,19.42
75.578125,21.29
75.59375,22.96
75.609375,24.19
75.625,24.69
75.640625,24.23
75.65625,22.75
75.671875,20.41
75.6875,17.55
75.703125,14.60
75.71875,11.89
75.734375,9.59
75.75,7.63
75.765625,5.81
75.78125,3.94
75.796875,1.97
75.8125,-0.00
75.828125,-1.79
75.84375,-3.29
75.859375,-4.53
75.875,-5.75
75.890625,-7.20
75.90625,-9.07
75.921875,-11.31
75.9375,-13.73
75.953125,-16.05
75.96875,-18.08
75.984375,-19.81
76.0,-21.36
76.015625,-22.95
76.03125,-24.81
76.046875,-27.15
76.0625,-30.10
76.078125,-33.68
76.09375,-37.69
76.109375,-41.63
76.125,-44.73
76.140625,-46.08
76.15625,-44.90
76.171875,-40.80
76.1875,-33.92
76.203125,-24.91
76.21875,-14.72
76.234375,-4.40
76.25,5.16
76.265625,13.30
76.28125,19.68
76.296875,24.17
76.3125,26.81
76.328125,27.71
76.34375,27.07
76.359375,25.17
76.375,22.38
76.390625,19.19
76.40625,16.11
76.421875,13.60
76.4375,11.93
76.453125,11.17
76.46875,11.29
76.484375,12.14
76.5,13.59
76.515625,15.45
76.53125,17.51
76.546875,19.40
76.5625,20.73
76.578125,21.22
76.59375,20.74
76.609375,19.44
76.625,17.57
76.640625,15.45
76.65625,13.35
76.671875,11.39
76.6875,9.61
76.703125,7.96
76.71875,6.35
76.734375,4.63
76.75,2.70
76.765625,0.49
76.78125,-1.93
76.796875,-4.37
76.8125,-6.57
76.828125,-8.36
76.84375,-9.72
76.859375,-10.80
76.875,-11.94
76.890625,-13.46
76.90625,-15.55
76.921875,-18.18
76.9375,-21.12
76.953125,-24.06
76.96875,-26.73
76.984375,-29.08
77.0,-31.26
77.015625,-33.61
77.03125,-36.46
77.046875,-39.95
77.0625,-43.98
77.078125,-48.06
77.09375,-51.43
77.109375,-53.25
77.125,-52.78
77.140625,-49.53
77.15625,-43.44
77.171875,-34.86
77.1875,-24.52
77.203125,-13.36
77.21875,-2.41
77.234375,7.43
