1603369521.00
64.000000
-0.00
-0.00
-0.00
-0.00
-0.00
-0.00
-0.00
-0.00
-0.00
-0.00
0.00
0.01
0.01
-0.00
-0.03
-0.05
-0.05
0.00
0.13
0.36
0.66
1.01
1.37
1.72
2.06
2.40
2.79
3.24
3.80
4.42
5.06
5.66
6.20
6.68
7.15
7.68
8.31
9.14
10.09
11.04
11.88
12.56
13.14
13.76
14.65
15.96
17.91
20.32
22.90
25.38
27.58
29.57
31.68
34.32
37.81
42.54
48.15
54.10
59.83
64.97
69.58
74.14
79.34
85.71
93.76
103.00
112.62
121.73
129.77
136.75
143.30
150.75
157.77
166.64
177.95
191.79
206.97
220.57
228.25
225.36
208.53
176.87
132.76
80.05
23.07
-34.94
-92.44
-149.16
-205.23
-260.37
-313.74
-363.87
-409.83
-450.91
-486.50
-515.74
-537.23
-549.22
-549.96
-538.37
-514.21
-478.67
-433.88
-382.45
-327.02
-269.84
-212.63
-156.66
-102.95
-52.37
-5.91
35.57
71.42
101.36
125.53
144.42
158.73
169.15
176.30
180.59
182.31
181.72
179.13
174.86
169.31
162.85
155.81
148.41
140.80
133.09
125.34
117.64
110.04
102.56
95.24
88.06
81.04
74.21
67.66
61.48
55.74
50.45
45.53
40.83
36.22
31.64
27.13
22.89
19.11
15.96
13.42
11.29
9.24
6.98
4.37
1.54
-1.15
-3.30
-4.62
-5.13
-5.20
-5.41
-6.26
-7.98
-10.34
-12.78
-14.64
-15.56
-15.52
-14.93
-14.41
-14.49
-15.49
-17.60
-20.87
-25.03
-29.12
-31.45
-29.98
-23.24
-11.30
3.85
18.89
30.53
36.87
38.07
35.92
32.62
29.69
27.45
25.35
22.83
19.85
16.93
14.78
13.71
13.45
13.34
12.74
11.30
9.21
6.99
5.20
4.15
3.78
3.72
3.53
2.94
2.07
1.37
1.39
2.52
4.77
7.75
10.86
13.45
15.15
15.86
15.82
15.35
14.73
14.12
13.54
12.93
12.31
11.73
11.36
11.36
11.81
12.62
13.53
14.27
14.60
14.42
13.70
12.49
10.82
8.70
6.19
3.17
-0.32
-4.17
-8.17
-12.02
-15.37
-17.91
-19.48
-20.15
-20.23
-20.11
-20.16
-20.56
-21.20
-21.76
-21.87
-21.19
-19.52
-16.87
-13.46
-9.58
-5.63
-1.96
1.18
3.66
5.46
6.62
7.22
7.29
6.90
6.06
4.83
3.27
1.51
-0.25
-1.76
-2.83
-3.38
-3.49
-3.36
-3.28
-3.47
-3.99
-4.76
-5.60
-6.35
-6.99
-7.62
-8.38
-9.35
-10.50
-11.76
-12.97
-14.07
-15.03
-15.97
-17.00
-18.19
-19.57
-21.15
-22.96
-25.08
-27.74
-30.87
-34.43
-38.20
-41.71
-44.26
-45.15
-43.82
-40.09
-34.20
-26.66
-18.13
-9.09
0.19
9.59
19.06
28.41
37.33
45.43
52.34
57.79
61.72
64.23
65.50
65.76
65.15
63.75
61.61
58.78
55.35
51.47
47.31
43.04
38.74
34.49
30.35
26.38
22.65
19.16
15.83
12.50
9.04
5.38
1.60
-2.16
-5.75
-9.10
-12.21
-15.17
-18.12
-21.19
-24.51
-28.18
-32.12
-36.07
-39.51
-41.79
-42.32
-40.76
-37.11
-31.75
-25.21
-18.10
-10.86
-3.75
3.08
9.57
15.59
20.93
25.31
28.43
30.15
30.58
30.04
29.08
28.19
27.67
27.47
27.30
26.83
25.84
24.38
22.62
20.76
18.88
16.90
14.67
12.08
9.19
6.14
3.12
0.22
-2.61
-5.51
-8.62
-11.96
-15.45
-18.91
-22.17
-25.16
-27.95
-30.71
-33.66
-36.89
-40.31
-43.51
-45.94
-46.97
-46.16
-43.39
-38.92
-33.25
-26.93
-20.38
-13.89
-7.61
-1.74
3.47
7.77
10.99
13.18
14.56
15.44
16.09
16.63
17.07
17.35
17.43
17.34
17.10
16.72
16.18
15.39
14.28
12.81
10.99
8.91
6.66
4.35
2.01
-0.37
-2.86
-5.50
-8.32
-11.25
-14.18
-17.00
-19.67
-22.26
-24.91
-27.84
-31.16
-34.83
-38.55
-41.77
-43.85
-44.21
-42.53
-38.88
-33.62
-27.29
-20.39
-13.26
-6.02
1.24
8.38
15.09
20.94
25.56
28.79
30.73
31.74
32.22
32.47
32.61
32.58
32.24
31.53
30.48
29.20
27.78
26.23
24.52
22.60
20.48
18.23
15.93
13.63
11.24
8.64
5.71
2.45
-1.04
-4.56
-7.89
-10.90
-13.53
-15.86
-18.05
-20.34
-23.00
-26.22
-30.00
-34.08
-37.96
-40.98
-42.53
-42.19
-39.83
-35.60
-29.84
-23.03
-15.66
-8.23
-1.13
5.33
10.98
15.80
19.80
23.01
25.44
27.12
28.08
28.48
28.51
28.34
28.06
27.64
27.02
26.15
25.10
24.00
22.98
22.07
21.19
20.15
18.83
17.20
15.33
13.35
11.33
9.27
7.03
4.49
1.60
-1.55
-4.75
-7.74
-10.36
-12.62
-14.71
-16.96
-19.67
-23.01
-26.84
-30.75
-34.15
-36.38
-36.95
-35.62
-32.43
-27.66
-21.72
-15.09
-8.21
-1.46
4.88
10.60
15.55
19.60
22.66
24.70
25.82
26.23
26.21
26.02
25.79
25.52
25.09
24.40
23.46
22.37
21.27
20.23
19.22
18.06
16.58
14.66
12.33
9.72
6.99
4.29
1.68
-0.81
-3.20
-5.52
-7.87
-10.34
-13.05
-16.04
-19.23
-22.44
-25.49
-28.27
-30.80
-33.11
-35.18
-36.75
-37.41
-36.77
-34.59
-30.98
-26.25
-20.88
-15.23
-9.57
-4.07
1.10
5.75
9.63
12.53
14.38
15.25
15.38
15.06
14.56
14.06
13.64
13.24
12.76
12.11
11.22
10.11
8.82
7.44
6.04
4.66
3.34
2.05
0.75
-0.68
-2.31
-4.22
-6.37
-8.66
-10.94
-13.11
-15.10
-16.99
-18.94
-21.20
-23.97
-27.37
-31.27
-35.30
-38.91
-41.46
-42.42
-41.47
-38.63
-34.15
-28.46
-22.07
-15.47
-9.02
-3.00
2.50
7.48
11.99
16.05
19.58
22.41
24.40
25.50
25.82
25.65
25.27
24.90
24.59
24.26
23.80
23.15
22.32
21.34
20.22
18.92
17.34
15.41
13.10
10.45
7.57
4.57
1.61
-1.22
-3.80
-6.12
-8.22
-10.24
-12.38
-14.85
-17.81
-21.32
-25.29
-29.45
-33.37
-36.52
-38.36
-38.46
-36.66
-33.08
-28.15
-22.41
-16.44
-10.67
-5.31
-0.39
4.18
8.53
12.69
16.60
20.09
22.99
25.18
26.65
27.47
27.76
27.65
27.19
26.45
25.48
24.37
23.26
22.23
21.29
20.30
19.06
17.40
15.27
12.78
10.13
7.54
5.15
2.93
0.78
-1.40
-3.69
-6.05
-8.41
-10.70
-12.90
-15.09
-17.39
-19.96
-22.89
-26.09
-29.28
-31.96
-33.56
-33.63
-31.95
-28.60
-23.96
-18.51
-12.76
-7.04
-1.54
3.69
8.61
13.16
17.19
20.49
22.93
24.46
25.17
25.31
25.12
24.82
24.51
24.17
23.71
23.06
22.17
21.04
19.70
18.19
16.52
14.70
12.71
10.57
8.34
6.09
3.84
1.62
-0.65
-3.08
-5.75
-8.66
-11.76
-14.90
-17.98
-20.91
-23.74
-26.53
-29.33
-32.00
-34.23
-35.55
-35.47
-33.70
-30.24
-25.39
-19.65
-13.53
-7.42
-1.61
3.72
8.36
12.14
14.89
16.58
17.35
17.47
17.26
16.96
16.70
16.39
15.91
15.11
14.00
12.71
11.45
10.40
9.54
8.71
7.60
5.95
3.70
0.96
-1.96
-4.77
-7.28
-9.50
-11.55
-13.62
-15.87
-18.42
-21.36
-24.76
-28.66
-32.96
-37.31
-41.15
-43.77
-44.53
-43.09
-39.54
-34.33
-28.11
-21.50
-14.92
-8.57
-2.49
3.30
8.69
13.50
17.50
20.57
22.70
24.04
24.82
25.27
25.55
25.71
25.69
25.38
24.70
23.67
22.43
21.17
20.02
18.96
17.78
16.17
13.86
10.79
7.13
3.26
-0.46
-3.82
-6.78
-9.53
-12.26
-15.14
-18.28
-21.73
-25.56
-29.76
-34.18
-38.44
-41.96
-44.09
-44.31
-42.40
-38.54
-33.19
-26.91
-20.19
-13.35
-6.52
0.24
6.84
13.09
18.72
23.44
27.06
29.60
31.24
32.28
33.01
33.58
33.97
34.05
33.69
32.88
31.67
30.21
28.56
26.75
24.66
22.22
19.40
16.28
13.04
9.83
6.76
3.78
0.80
-2.26
-5.45
-8.73
-12.07
-15.50
-19.14
-23.12
-27.47
-31.97
-36.16
-39.43
-41.18
-41.00
-38.78
-34.66
-28.98
-22.16
-14.62
-6.79
0.92
8.16
14.61
20.02
24.27
27.41
29.61
31.15
32.31
33.32
34.22
34.93
35.26
35.09
34.38
33.21
31.72
30.07
28.31
26.46
24.45
22.27
19.92
17.43
14.82
12.07
9.16
6.11
2.95
-0.25
-3.42
-6.55
-9.72
-13.06
-16.72
-20.81
-25.30
-29.97
-34.36
-37.85
-39.80
-39.78
-37.69
-33.81
-28.64
-22.73
-16.49
-10.13
-3.74
2.58
8.63
14.05
18.53
21.80
23.85
24.86
25.12
24.97
24.66
24.32
23.91
23.33
22.46
21.25
19.77
18.14
16.47
14.81
13.12
11.26
9.10
6.58
3.76
0.78
-2.17
-4.92
-7.38
-9.55
-11.58
-13.63
-15.97
-18.79
-22.17
-26.04
-30.06
-33.77
-36.62
-38.15
-38.07
-36.32
-33.02
-28.40
-22.76
-16.44
-9.79
-3.21
3.00
8.56
13.27
17.01
19.69
21.32
22.04
22.07
21.73
21.31
21.01
20.83
20.63
20.20
19.38
18.15
16.57
14.80
13.01
11.30
9.67
7.99
6.13
3.95
1.40
-1.48
-4.55
-7.68
-10.76
-13.80
-16.80
-19.81
-22.90
-26.10
-29.49
-33.08
-36.80
-40.37
-43.31
-45.01
-44.91
-42.76
-38.66
-33.08
-26.64
-19.88
-13.17
-6.64
-0.30
5.81
11.56
16.71
21.00
24.28
26.51
27.86
28.55
28.82
28.87
28.81
28.64
28.29
27.66
26.68
25.34
23.71
21.93
20.11
18.28
16.39
14.31
11.93
9.26
6.41
3.55
0.80
-1.80
-4.37
-7.08
-10.13
-13.60
-17.47
-21.65
-25.91
-30.03
-33.67
-36.44
-37.94
-37.82
-35.90
-32.25
-27.16
-21.09
-14.56
-7.99
-1.68
4.21
9.59
14.38
18.52
21.97
24.74
26.87
28.44
29.53
30.22
30.60
30.72
30.63
30.35
29.83
29.00
27.87
26.49
24.96
23.40
21.84
20.21
18.35
16.17
13.66
10.97
8.30
5.84
3.64
1.62
-0.35
-2.40
-4.63
-7.12
-9.96
-13.24
-17.01
-21.16
-25.29
-28.78
-30.91
-31.13
-29.30
-25.67
-20.89
-15.59
-10.28
-5.11
-0.03
5.04
10.02
14.55
18.19
20.56
21.60
21.60
21.09
20.60
20.40
20.49
20.60
20.45
19.88
18.97
17.93
16.96
16.10
15.24
14.11
12.49
10.26
7.52
4.46
1.30
-1.80
-4.78
-7.66
-10.48
-13.29
-16.10
-18.94
-21.86
-24.92
-28.21
-31.68
-35.10
-38.02
-39.88
-40.13
-38.50
-35.06
-30.23
-24.62
-18.83
-13.23
-7.96
-2.97
1.76
6.13
9.91
12.79
14.57
15.29
15.19
14.70
14.19
13.86
13.71
13.60
13.32
12.80
12.03
11.12
10.20
9.32
8.40
7.33
5.92
4.07
1.79
-0.81
-3.57
-6.35
-9.06
-11.72
-14.38
-17.09
-19.91
-22.90
-26.08
-29.46
-32.93
-36.25
-39.00
-40.71
-40.96
-39.52
-36.43
-31.94
-26.42
-20.23
-13.64
-6.87
-0.14
6.30
12.12
16.96
20.58
22.88
24.04
24.38
24.37
24.39
24.66
25.18
25.72
25.97
25.65
24.66
23.11
21.27
19.47
17.89
16.49
14.99
13.07
10.50
7.29
3.69
0.10
-3.15
-5.86
-8.09
-10.10
-12.20
-14.70
-17.77
-21.45
-25.58
-29.85
-33.83
-36.97
-38.78
-38.89
-37.17
-33.78
-29.13
-23.70
-17.94
-12.08
-6.19
-0.29
5.52
11.02
15.88
19.83
22.76
24.80
26.24
27.37
28.32
29.04
29.39
29.25
28.60
27.58
26.40
25.31
24.50
24.03
23.86
23.81
23.61
22.95
21.64
19.62
17.02
14.12
11.21
8.47
5.92
3.43
0.80
-2.09
-5.34
-8.99
-13.03
-17.36
-21.71
-25.61
-28.47
-29.72
-29.01
-26.39
-22.21
-17.06
-11.47
-5.77
-0.13
5.41
10.75
15.66
19.82
22.96
25.00
26.12
26.75
27.40
28.46
29.95
31.55
32.66
32.67
31.20
28.26
24.18
19.50
14.81
10.58
7.11
4.54
2.82
1.73
0.94
0.09
-1.14
-2.96
-5.43
-8.46
-11.87
-15.41
-18.89
-22.18
-25.33
-28.43
-31.53
-34.51
-37.01
-38.52
-38.58
-36.96
-33.82
-29.51
-24.48
-19.05
-13.44
-7.79
-2.33
2.55
6.44
9.07
10.43
10.75
10.44
9.89
9.30
8.72
8.09
7.35
6.53
5.71
4.98
4.42
4.00
3.63
3.17
2.46
1.37
-0.15
-2.09
-4.33
-6.71
-9.01
-11.10
-12.90
-14.44
-15.91
-17.52
-19.49
-21.99
-24.98
-28.29
-31.51
-34.11
-35.59
-35.57
-33.92
-30.75
-26.38
-21.21
-15.56
-9.68
-3.69
2.31
8.16
13.66
18.52
22.48
25.32
26.98
27.56
27.27
26.41
25.30
24.18
23.15
22.15
21.00
19.56
17.76
15.72
13.65
11.75
10.09
8.55
6.88
4.83
2.33
-0.50
-3.39
-6.08
-8.48
-10.68
-12.90
-15.37
-18.19
-21.40
-24.95
-28.72
-32.51
-35.95
-38.53
-39.67
-38.94
-36.18
-31.62
-25.75
-19.19
-12.42
-5.78
0.55
6.41
11.61
15.94
19.27
21.64
23.25
24.37
25.27
26.08
26.78
27.25
27.36
26.98
26.12
24.85
23.31
21.67
20.01
18.34
16.59
14.60
12.27
9.61
6.73
3.82
1.07
-1.39
-3.56
-5.53
-7.44
-9.46
-11.69
-14.25
-17.18
-20.46
-23.93
-27.29
-30.08
-31.78
-31.99
-30.51
-27.45
-23.13
-17.98
-12.36
-6.52
-0.62
5.17
10.58
15.30
19.04
21.69
23.32
24.21
24.70
25.07
25.46
25.91
26.33
26.61
26.62
26.28
25.57
24.52
23.20
21.69
20.03
18.23
16.25
14.12
11.93
9.77
7.74
5.84
4.04
2.27
0.45
-1.48
-3.60
-6.04
-8.98
-12.46
-16.33
-20.17
-23.34
-25.23
-25.40
-23.77
-20.58
-16.32
-11.48
-6.47
-1.51
3.31
7.97
12.41
16.42
19.79
22.28
23.76
24.33
24.20
23.70
23.08
22.48
21.87
21.16
20.23
19.03
17.59
15.91
14.03
11.93
9.58
7.02
4.32
1.62
-0.94
-3.25
-5.28
-7.07
-8.72
-10.32
-12.03
-13.96
-16.22
-18.94
-22.17
-25.89
-29.88
-33.77
-37.02
-39.12
-39.68
-38.56
-35.86
-31.87
-26.91
-21.32
-15.40
-9.44
-3.80
1.13
5.01
7.67
9.16
9.75
9.82
9.69
9.59
9.56
9.50
9.33
9.02
8.66
8.38
8.26
8.25
8.20
7.84
6.99
5.54
3.52
1.09
-1.57
-4.24
-6.76
-9.04
-11.10
-13.07
-15.15
-17.58
-20.56
-24.14
-28.18
-32.35
-36.11
-38.86
-40.07
-39.42
-36.90
-32.82
-27.66
-21.94
-16.01
-10.05
-4.10
1.76
7.35
12.37
16.50
19.53
21.48
22.51
22.91
22.92
22.74
22.46
22.15
21.82
21.47
21.06
20.52
19.75
18.66
17.18
15.30
13.09
10.65
8.12
5.66
3.36
1.27
-0.65
-2.52
-4.51
-6.79
-9.53
-12.81
-16.65
-20.95
-25.53
-30.08
-34.14
-37.21
-38.79
-38.60
-36.58
-33.00
-28.30
-22.94
-17.25
-11.43
-5.59
0.12
5.41
9.96
13.51
15.98
17.58
18.66
19.57
20.53
21.56
22.50
23.10
23.16
22.53
21.25
19.46
17.39
15.22
13.11
11.06
8.97
6.73
4.23
1.47
-1.50
-4.55
-7.58
-10.58
-13.54
-16.56
-19.73
-23.14
-26.88
-30.99
-35.46
-40.17
-44.86
-49.14
-52.47
-54.32
-54.24
-51.97
-47.55
-41.24
-33.41
-24.47
-14.79
-4.65
5.65
15.74
25.22
33.66
40.77
46.47
50.81
53.90
55.87
56.76
56.60
55.49
53.63
51.31
48.80
46.29
43.87
41.48
39.03
36.38
33.43
30.12
26.43
22.44
18.28
14.16
10.25
6.63
3.29
0.09
-3.09
-6.38
-9.87
-13.60
-17.54
-21.55
-25.38
-28.62
-30.71
-31.21
-29.81
-26.60
-21.91
-16.29
-10.25
-4.15
1.87
7.71
13.28
18.37
22.69
26.06
28.43
29.98
30.98
31.67
32.13
32.33
32.17
31.63
30.74
29.61
28.36
27.03
25.59
23.97
22.16
20.19
18.12
15.96
13.64
11.01
7.97
4.52
0.81
-2.93
-6.43
-9.58
-12.39
-15.06
-17.86
-21.01
-24.59
-28.49
-32.37
-35.75
-38.06
-38.85
-37.87
-35.16
-31.04
-25.97
-20.42
-14.74
-9.16
-3.80
1.22
5.74
9.59
12.65
14.89
16.45
17.50
18.24
18.73
18.97
18.83
18.20
17.05
15.46
13.61
11.70
9.89
8.20
6.55
4.78
2.73
0.37
-2.22
-4.86
-7.35
-9.56
-11.52
-13.38
-15.33
-17.53
-20.03
-22.78
-25.71
-28.73
-31.72
-34.45
-36.58
-37.67
-37.34
-35.37
-31.83
-27.05
-21.53
-15.75
-10.13
-4.92
-0.29
3.66
6.87
9.32
11.09
12.35
13.29
14.12
14.91
15.66
16.29
16.72
16.94
16.94
16.74
16.27
15.46
14.20
12.49
10.40
8.07
5.60
3.04
0.38
-2.42
-5.29
-8.15
-10.91
-13.56
-16.19
-18.96
-21.94
-25.17
-28.59
-32.10
-35.64
-39.07
-42.17
-44.62
-46.01
-45.98
-44.37
-41.25
-36.86
-31.49
-25.42
-18.89
-12.13
-5.44
0.86
6.44
11.14
14.92
17.90
20.28
22.25
23.91
25.28
26.37
27.19
27.79
28.23
28.52
28.63
28.50
28.08
27.38
26.47
25.42
24.24
22.88
21.28
19.40
17.32
15.18
13.13
11.23
9.43
7.50
5.18
2.21
-1.47
-5.71
-10.10
-14.04
-16.89
-18.10
-17.36
-14.72
-10.52
-5.32
0.29
5.78
10.80
15.17
18.84
21.84
24.14
25.73
26.61
26.85
26.59
26.05
25.39
24.73
24.06
23.35
22.54
21.65
20.75
19.94
19.25
18.58
17.72
16.37
14.28
11.34
7.66
3.52
-0.69
-4.63
-8.10
-11.11
-13.83
-16.48
-19.32
-22.58
-26.37
-30.64
-35.13
-39.34
-42.69
-44.69
-45.07
-43.91
-41.53
-38.30
-34.48
-30.16
-25.27
-19.79
-13.87
-7.89
-2.34
2.34
5.92
8.41
10.04
11.06
11.71
12.06
12.14
11.89
11.32
10.46
9.40
8.23
7.03
5.80
4.51
3.06
1.33
-0.75
-3.15
-5.75
-8.36
-10.85
-13.22
-15.59
-18.17
-21.11
-24.48
-28.19
-32.00
-35.49
-38.17
-39.52
-39.18
-37.01
-33.18
-28.13
-22.35
-16.27
-10.12
-3.96
2.21
8.30
14.06
19.10
23.08
25.84
27.48
28.28
28.59
28.62
28.47
28.06
27.32
26.28
25.00
23.63
22.23
20.77
19.09
17.00
14.37
11.19
7.59
3.85
0.28
-2.84
-5.37
-7.39
-9.16
-11.05
-13.43
-16.51
-20.35
-24.79
-29.50
-34.05
-37.86
-40.28
-40.78
-39.06
-35.22
-29.80
-23.50
-17.00
-10.69
-4.64
1.25
7.02
12.57
17.60
21.82
25.10
27.48
29.18
30.40
31.26
31.79
31.95
31.77
31.28
30.57
29.68
28.65
27.48
26.13
24.56
22.71
20.50
17.90
14.95
11.78
8.55
5.41
2.41
-0.48
-3.37
-6.32
-9.41
-12.65
-16.02
-19.50
-22.94
-26.01
-28.26
-29.19
-28.44
-25.90
-21.81
-16.64
-10.91
-4.98
0.95
6.83
12.61
18.15
23.14
27.26
30.25
32.06
32.83
32.81
32.33
31.63
30.89
30.23
29.69
29.29
28.93
28.49
27.78
26.65
25.04
23.01
20.69
18.20
15.62
12.96
10.16
7.16
3.93
0.51
-3.03
-6.61
-10.19
-13.80
-17.49
-21.29
-25.09
-28.60
-31.39
-32.98
-33.00
-31.30
-27.99
-23.39
-17.95
-12.13
-6.33
-0.90
3.89
7.87
10.93
13.04
14.22
14.57
14.26
13.55
12.70
11.93
11.30
10.74
10.04
9.02
7.57
5.76
3.77
1.78
-0.12
-1.97
-3.89
-6.02
-8.39
-10.97
-13.59
-16.10
-18.38
-20.41
-22.29
-24.23
-26.45
-29.05
-32.04
-35.17
-38.05
-40.19
-41.14
-40.55
-38.29
-34.42
-29.19
-22.95
-16.10
-9.04
-2.17
4.14
9.60
13.97
17.16
19.19
20.23
20.58
20.57
20.49
20.50
20.60
20.60
20.25
19.36
17.87
15.93
13.81
11.81
10.12
8.74
7.48
6.04
4.19
1.81
-1.04
-4.13
-7.21
-10.04
-12.50
-14.61
-16.54
-18.61
-21.15
-24.34
-28.04
-31.82
-34.99
-36.82
-36.86
-34.96
-31.36
-26.52
-20.87
-14.76
-8.44
-2.05
4.21
10.11
15.40
19.89
23.50
26.21
28.11
29.29
29.83
29.84
29.39
28.58
27.53
26.39
25.29
24.33
23.52
22.73
21.77
20.47
18.69
16.43
13.78
10.90
7.96
5.08
2.34
-0.24
-2.67
-5.03
-7.43
-10.02
-12.95
-16.31
-20.12
-24.21
-28.32
-32.03
-34.84
-36.31
-36.12
-34.21
-30.73
-26.03
-20.55
-14.66
-8.65
-2.67
3.16
8.74
13.89
18.42
22.20
25.15
27.31
28.77
29.65
30.06
30.10
29.87
29.55
29.28
29.17
29.17
29.10
28.68
27.63
25.83
23.31
20.25
16.90
13.45
10.03
6.77
3.80
1.25
-0.81
-2.47
-3.97
-5.67
-7.86
-10.68
-14.05
-17.76
-21.52
-25.10
-28.23
-30.60
-31.87
-31.73
-29.99
-26.72
-22.21
-16.92
-11.32
-5.76
-0.49
4.33
8.54
11.95
14.38
15.74
16.12
15.79
15.14
14.51
14.10
13.88
13.64
13.11
12.07
10.50
8.50
6.31
4.12
2.08
0.18
-1.67
-3.58
-5.62
-7.77
-9.93
-12.02
-13.99
-15.86
-17.72
-19.67
-21.76
-24.00
-26.39
-28.90
-31.47
-33.91
-35.89
-36.96
-36.67
-34.73
-31.17
-26.31
-20.68
-14.78
-9.01
-3.56
1.49
6.08
10.14
13.52
16.07
17.71
18.48
18.57
18.26
17.86
17.58
17.49
17.47
17.33
16.88
16.02
14.80
13.39
11.94
10.55
9.20
7.76
6.11
4.15
1.83
-0.79
-3.61
-6.45
-9.15
-11.62
-13.86
-16.00
-18.21
-20.66
-23.46
-26.60
-29.95
-33.26
-36.14
-38.10
-38.64
-37.39
-34.26
-29.48
-23.56
-17.13
-10.70
-4.58
1.09
6.32
11.07
15.32
18.98
21.96
24.24
25.84
26.85
27.34
27.44
27.21
26.70
25.96
25.01
23.90
22.69
21.37
19.92
18.25
16.34
14.21
11.94
9.68
7.54
5.54
3.60
1.64
-0.49
-2.84
-5.46
-8.35
-11.50
-14.86
-18.42
-22.14
-25.91
-29.58
-32.85
-35.33
-36.60
-36.31
-34.29
-30.59
-25.48
-19.39
-12.77
-6.05
0.41
6.33
11.50
15.76
19.05
21.42
23.05
24.16
25.00
25.78
26.56
27.32
27.89
28.12
27.84
27.00
25.69
24.09
22.44
20.93
19.64
18.48
17.25
15.76
13.87
11.57
8.96
6.18
3.35
0.59
-2.07
-4.61
-7.09
-9.67
-12.48
-15.69
-19.31
-23.18
-26.91
-29.91
-31.56
-31.37
-29.13
-24.97
-19.34
-12.89
-6.29
-0.05
5.49
10.25
14.25
17.56
20.29
22.55
24.45
26.06
27.44
28.51
29.11
29.06
28.22
26.59
24.33
21.67
18.90
16.21
13.65
11.15
8.53
5.62
2.35
-1.20
-4.83
-8.29
-11.38
-14.07
-16.44
-18.66
-20.82
-22.95
-25.03
-27.09
-29.25
-31.62
-34.20
-36.71
-38.57
-39.06
-37.68
-34.36
-29.54
-24.03
-18.60
-13.75
-9.55
-5.75
-2.01
1.79
5.55
8.98
11.74
13.64
14.64
14.90
14.61
13.97
13.14
12.24
11.39
10.69
10.21
9.96
9.80
9.50
8.75
7.30
5.06
2.20
-0.89
-3.71
-5.90
-7.36
-8.37
-9.41
-10.97
-13.38
-16.63
-20.47
-24.56
-28.55
-32.18
-35.16
-37.14
-37.73
-36.60
-33.64
-29.08
-23.46
-17.41
-11.42
-5.70
-0.17
5.27
10.59
15.51
19.58
22.39
23.84
24.19
23.97
23.73
23.82
24.26
24.82
25.19
25.13
24.55
23.50
22.06
20.33
18.30
16.00
13.47
10.78
8.07
5.42
2.85
0.28
-2.40
-5.31
-8.47
-11.80
-15.17
-18.47
-21.70
-24.95
-28.30
-31.72
-34.93
-37.43
-38.64
-38.09
-35.62
-31.40
-25.83
-19.43
-12.64
-5.76
1.02
7.51
13.52
18.76
22.99
26.09
28.13
29.41
30.32
31.15
32.01
32.73
33.01
32.53
31.19
29.12
26.63
24.06
21.65
19.41
17.16
14.69
11.85
8.62
5.11
1.50
-2.04
-5.40
-8.47
-11.19
-13.55
-15.60
-17.48
-19.44
-21.73
-24.52
-27.80
-31.25
-34.30
-36.29
-36.63
-35.00
-31.42
-26.23
-19.94
-13.09
-6.12
0.74
7.38
13.72
19.62
24.84
29.09
32.19
34.09
34.99
35.18
34.98
34.57
33.97
33.11
31.95
30.53
28.98
27.44
25.93
24.37
22.56
20.33
17.62
14.49
11.14
7.79
4.64
1.80
-0.72
-3.00
-5.18
-7.42
-9.88
-12.66
-15.82
-19.37
-23.22
-27.19
-30.88
-33.81
-35.42
-35.28
-33.26
-29.58
-24.73
-19.27
-13.65
-8.08
-2.59
2.83
8.04
12.73
16.53
19.13
20.48
20.82
20.60
20.24
20.03
19.95
19.75
19.10
17.77
15.74
13.21
10.53
7.98
5.68
3.60
1.54
-0.63
-3.02
-5.62
-8.35
-11.16
-13.98
-16.82
-19.68
-22.61
-25.65
-28.83
-32.18
-35.64
-39.04
-42.07
-44.31
-45.33
-44.81
-42.62
-38.87
-33.76
-27.61
-20.65
-13.14
-5.35
2.35
9.45
15.46
20.01
23.00
24.62
25.26
25.38
25.31
25.19
25.04
24.78
24.35
23.72
22.87
21.82
20.56
19.15
17.64
16.10
14.62
13.19
11.69
9.95
7.74
4.97
1.68
-1.88
-5.41
-8.67
-11.58
-14.31
-17.18
-20.56
-24.67
-29.43
-34.41
-38.95
-42.27
-43.71
-42.91
-39.85
-34.84
-28.41
-21.13
-13.49
-5.89
1.36
8.05
14.00
19.11
23.38
26.81
29.40
31.17
32.17
32.47
32.29
31.86
31.38
30.92
30.40
29.68
28.62
27.22
25.58
23.81
21.95
19.89
17.46
14.51
11.01
7.11
3.08
-0.81
-4.39
-7.62
-10.64
-13.61
-16.74
-20.15
-23.91
-28.01
-32.32
-36.59
-40.40
-43.16
-44.29
-43.32
-40.13
-35.01
-28.53
-21.34
-13.95
-6.58
0.73
7.98
15.00
21.47
26.97
31.21
34.11
35.85
36.76
37.17
37.30
37.24
37.02
36.58
35.93
35.07
33.99
32.65
30.99
28.97
26.60
23.95
21.16
18.37
15.67
13.05
10.46
7.77
4.89
1.77
-1.55
-4.99
-8.47
-11.91
-15.30
-18.72
-22.30
-26.18
-30.33
-34.53
-38.30
-40.98
-41.95
-40.85
-37.66
-32.75
-26.70
-20.12
-13.46
-7.02
-0.95
4.63
9.55
13.61
16.70
18.85
20.25
21.18
21.87
22.41
22.76
22.79
22.42
21.64
20.54
19.22
17.77
16.23
14.54
12.66
10.51
8.09
5.41
2.57
-0.31
-3.12
-5.78
-8.31
-10.81
-13.45
-16.32
-19.45
-22.79
-26.25
-29.78
-33.38
-36.97
-40.32
-42.95
-44.24
-43.61
-40.82
-36.02
-29.78
-22.83
-15.77
-8.95
-2.50
3.56
9.10
13.94
17.83
20.66
22.45
23.43
23.84
23.93
23.84
23.59
23.17
22.50
21.54
20.27
18.72
16.99
15.19
13.40
11.59
9.64
7.38
4.71
1.65
-1.63
-4.89
-7.90
-10.55
-12.91
-15.10
-17.31
-19.68
-22.29
-25.21
-28.50
-32.16
-36.11
-40.00
-43.24
-45.14
-45.04
-42.66
-38.14
-32.03
-25.04
-17.80
-10.70
-3.91
2.59
8.76
14.47
19.50
23.63
26.74
28.89
30.29
31.23
31.98
32.68
33.28
33.60
33.41
32.57
31.12
29.26
27.27
25.38
23.67
22.03
20.24
18.08
15.39
12.18
8.59
4.86
1.22
-2.16
-5.23
-8.05
-10.77
-13.59
-16.67
-20.13
-24.01
-28.22
-32.51
-36.47
-39.56
-41.24
-41.11
-39.02
-35.09
-29.75
-23.48
-16.75
-9.92
-3.20
3.33
9.58
15.46
20.81
25.47
29.27
32.15
34.11
35.29
35.89
36.12
36.11
35.96
35.66
35.19
34.50
33.61
32.50
31.15
29.51
27.54
25.26
22.73
20.09
17.45
14.80
12.05
9.05
5.66
1.94
-1.94
-5.67
-9.04
-11.99
-14.69
-17.47
-20.62
-24.24
-28.11
-31.76
-34.62
-36.15
-36.05
-34.21
-30.76
-25.99
-20.26
-13.97
-7.54
-1.32
4.42
9.49
13.76
17.15
19.62
21.16
21.84
21.78
21.21
20.39
19.54
18.81
18.20
17.62
16.93
16.02
14.84
13.41
11.75
9.91
7.88
5.63
3.17
0.56
-2.09
-4.64
-7.04
-9.28
-11.48
-13.78
-16.26
-18.96
-21.87
-24.96
-28.20
-31.56
-34.89
-37.90
-40.12
-41.05
-40.30
-37.78
-33.67
-28.40
-22.44
-16.23
-10.07
-4.18
1.20
5.83
9.51
12.14
13.83
14.84
15.51
16.13
16.85
17.65
18.35
18.77
18.74
18.21
17.23
15.91
14.40
12.84
11.33
9.87
8.38
6.66
4.49
1.78
-1.40
-4.78
-8.03
-10.83
-13.08
-14.86
-16.47
-18.19
-20.26
-22.83
-25.92
-29.47
-33.30
-37.06
-40.21
-42.15
-42.32
-40.48
-36.69
-31.33
-24.96
-18.13
-11.26
-4.56
1.88
8.02
13.76
18.91
23.26
26.62
28.93
30.29
30.93
31.13
31.11
30.97
30.69
30.19
29.40
28.35
27.12
25.82
24.54
23.28
21.94
20.36
18.40
15.93
12.93
9.44
5.55
1.40
-2.85
-7.02
-10.94
-14.48
-17.60
-20.35
-22.91
-25.56
-28.58
-32.15
-36.26
-40.58
-44.55
-47.45
-48.63
-47.68
-44.56
-39.59
-33.29
-26.20
-18.71
-11.12
-3.63
3.49
9.96
15.47
19.90
23.26
25.75
27.63
29.07
30.19
31.00
31.53
31.84
32.03
32.14
32.14
31.93
31.42
30.58
29.50
28.25
26.93
25.51
23.96
22.22
20.30
18.26
16.15
13.99
11.74
9.38
6.91
4.39
1.90
-0.53
-2.96
-5.51
-8.37
-11.67
-15.42
-19.41
-23.21
-26.30
-28.13
-28.36
-26.92
-24.01
-19.92
-14.95
-9.34
-3.24
3.10
9.29
14.83
19.22
22.11
23.45
23.44
22.45
20.88
19.05
17.17
15.39
13.81
12.51
11.55
10.90
10.46
10.10
9.64
8.98
8.04
6.76
5.09
3.02
0.53
-2.32
-5.45
-8.73
-12.04
-15.29
-18.36
-21.14
-23.47
-25.25
-26.48
-27.33
-28.13
-29.22
-30.85
-32.99
-35.30
-37.21
-38.06
-37.36
-34.94
-30.97
-25.83
-19.97
-13.69
-7.16
-0.49
6.13
12.33
17.67
21.69
24.14
25.05
24.66
23.36
21.47
19.20
16.68
14.01
11.28
8.62
6.12
3.84
1.87
0.27
-0.78
-1.12
-0.71
0.25
1.32
1.84
1.19
-1.01
-4.76
-9.69
-15.30
-21.14
-26.99
-32.86
-38.95
-45.44
-52.42
-59.84
-67.50
-75.06
-82.02
-87.74
-91.47
-92.59
-90.79
-86.18
-79.33
-71.03
-62.07
-53.05
-44.30
-36.00
-28.27
-21.23
-15.01
-9.73
-5.38
-1.90
0.81
2.86
4.37
5.57
6.70
8.01
9.59
11.38
13.19
14.90
16.53
18.32
20.55
23.36
26.60
29.83
32.51
34.17
34.65
34.03
32.54
30.45
27.88
24.94
21.71
18.33
14.92
11.53
8.04
4.21
-0.18
-5.10
-10.12
-14.47
-17.24
-17.68
-15.51
-10.94
-4.61
2.65
10.02
16.82
22.50
26.69
29.18
29.96
29.25
27.47
25.10
22.62
20.36
18.52
17.13
16.20
15.63
15.35
15.29
15.42
15.70
16.08
16.51
16.92
17.29
17.61
17.95
18.37
18.92
19.60
20.34
21.04
21.53
21.64
21.19
20.02
17.98
15.02
11.16
6.50
1.22
-4.40
-9.97
-14.99
-18.88
-21.16
-21.52
-19.96
-16.75
-12.35
-7.24
-1.86
3.46
8.52
13.11
17.07
20.28
22.70
24.35
25.32
25.71
25.61
25.10
24.27
23.20
22.03
20.93
20.07
19.62
19.61
19.98
20.45
20.71
20.44
19.46
17.77
15.55
13.00
10.31
7.60
4.94
2.41
0.09
-1.98
-3.84
-5.61
-7.42
-9.40
-11.55
-13.79
-15.94
-17.77
-18.97
-19.27
-18.48
-16.59
-13.73
-10.18
-6.20
-1.95
2.49
7.03
11.55
15.78
19.40
22.14
23.90
24.79
25.04
24.94
24.68
24.29
23.69
22.76
21.41
19.64
17.56
15.33
13.11
10.96
8.86
6.77
4.63
2.41
0.11
-2.31
-4.83
-7.45
-10.12
-12.74
-15.23
-17.56
-19.81
-22.13
-24.70
-27.63
-30.92
-34.39
-37.68
-40.33
-41.81
-41.65
-39.63
-35.84
-30.68
-24.71
-18.50
-12.45
-6.71
-1.31
3.75
8.35
12.37
15.65
18.16
19.98
21.25
22.10
22.57
22.70
22.49
22.01
21.35
20.56
19.69
18.73
17.68
16.59
15.48
14.33
13.05
11.49
9.53
7.16
4.51
1.76
-0.93
-3.44
-5.79
-8.05
-10.34
-12.83
-15.64
-18.95
-22.77
-26.98
-31.18
-34.79
-37.16
-37.77
-36.41
-33.22
-28.59
-23.04
-17.04
-10.90
-4.77
1.25
7.06
12.49
17.34
21.39
24.56
26.84
28.35
29.23
29.63
29.63
29.27
28.57
27.61
26.43
25.09
23.64
22.08
20.44
18.71
16.91
15.00
12.94
10.68
8.22
5.64
3.13
0.83
-1.22
-3.12
-5.04
-7.16
-9.53
-12.11
-14.83
-17.61
-20.41
-23.06
-25.31
-26.71
-26.83
-25.40
-22.37
-18.01
-12.71
-6.82
-0.61
5.79
12.24
18.49
24.21
29.09
32.94
35.79
37.84
39.40
40.67
41.75
42.57
42.98
42.87
42.17
40.96
39.33
37.42
35.29
32.98
30.49
27.82
24.99
22.02
18.92
15.70
12.36
8.93
5.49
2.17
-0.93
-3.76
-6.35
-8.86
-11.43
-14.22
-17.31
-20.71
-24.35
-27.99
-31.26
-33.63
-34.60
-33.82
-31.31
-27.42
-22.72
-17.79
-12.93
-8.23
-3.61
0.94
5.24
8.92
11.62
13.12
13.53
13.15
12.41
11.63
10.95
10.33
9.63
8.72
7.53
6.10
4.53
2.95
1.48
0.14
-1.16
-2.54
-4.18
-6.15
-8.46
-10.99
-13.57
-16.01
-18.19
-20.09
-21.79
-23.42
-25.15
-27.18
-29.59
-32.38
-35.35
-38.08
-40.05
-40.77
-39.90
-37.39
-33.45
-28.44
-22.77
-16.75
-10.61
-4.50
1.44
7.00
11.96
16.09
19.24
21.36
22.49
22.83
22.61
22.05
21.25
20.18
18.71
16.76
14.30
11.45
8.38
5.24
2.12
-0.98
-4.05
-7.07
-9.97
-12.66
-15.07
-17.15
-18.84
-20.13
-21.04
-21.63
-22.05
-22.48
-23.10
-24.03
-25.35
-27.03
-28.97
-30.98
-32.72
-33.77
-33.74
-32.28
-29.29
-24.86
-19.30
-12.99
-6.34
0.26
6.52
12.22
17.21
21.47
25.04
27.96
30.30
32.06
33.22
33.77
33.73
33.16
32.09
30.64
28.88
26.98
25.10
23.40
21.95
20.73
19.54
18.16
16.37
14.07
11.31
8.24
5.06
1.96
-0.89
-3.41
-5.61
-7.60
-9.58
-11.74
-14.28
-17.25
-20.59
-24.07
-27.32
-29.95
-31.50
-31.67
-30.28
-27.35
-23.12
-17.93
-12.19
-6.22
-0.26
5.58
11.22
16.59
21.53
25.85
29.39
32.09
34.01
35.32
36.23
36.89
37.36
37.57
37.45
36.91
35.95
34.58
32.89
30.96
28.89
26.76
24.60
22.35
19.89
17.10
13.97
10.63
7.29
4.16
1.30
-1.40
-4.16
-7.19
-10.57
-14.23
-17.96
-21.51
-24.59
-26.94
-28.30
-28.46
-27.28
-24.79
-21.17
-16.77
-12.02
-7.33
-3.00
0.87
4.27
7.26
9.86
11.99
13.54
14.44
14.74
14.60
14.19
13.58
12.74
11.62
10.22
8.71
7.29
6.16
5.27
4.39
3.22
1.50
-0.80
-3.48
-6.24
-8.81
-11.09
-13.12
-15.06
-17.04
-19.18
-21.49
-24.02
-26.79
-29.78
-32.88
-35.85
-38.30
-39.78
-39.94
-38.62
-35.94
-32.16
-27.68
-22.83
-17.81
-12.80
-7.96
-3.51
0.30
3.24
5.25
6.48
7.23
7.85
8.56
9.36
10.07
10.44
10.27
9.56
8.47
7.25
6.12
5.17
4.31
3.34
2.01
0.17
-2.19
-4.89
-7.65
-10.22
-12.41
-14.21
-15.73
-17.18
-18.75
-20.61
-22.87
-25.53
-28.41
-31.17
-33.30
-34.26
-33.66
-31.40
-27.71
-23.01
-17.78
-12.34
-6.86
-1.39
3.98
9.11
13.74
17.63
20.64
22.75
24.05
24.71
24.85
24.60
24.04
23.21
22.14
20.79
19.14
17.16
14.86
12.33
9.69
7.03
4.35
1.57
-1.40
-4.58
-7.85
-10.97
-13.69
-15.88
-17.58
-19.00
-20.37
-21.89
-23.63
-25.51
-27.38
-29.02
-30.13
-30.41
-29.56
-27.41
-23.97
-19.45
-14.21
-8.63
-3.02
2.41
7.50
12.07
15.93
18.90
20.91
21.99
22.30
22.04
21.35
20.29
18.87
17.07
14.89
12.38
9.64
6.77
3.88
1.09
-1.58
-4.11
-6.53
-8.87
-11.08
-12.99
-14.37
-14.97
-14.60
-13.27
-11.09
-8.32
-5.26
-2.26
0.41
2.55
4.07
5.07
5.76
6.50
7.66
9.53
12.20
15.59
19.41
23.33
27.02
30.30
33.08
35.35
37.12
38.34
39.00
39.11
38.75
38.09
37.33
36.56
35.81
34.95
33.82
32.32
30.44
28.25
25.88
23.43
20.94
18.36
15.62
12.67
9.56
6.38
3.27
0.35
-2.39
-5.03
-7.69
-10.49
-13.53
-16.82
-20.31
-23.77
-26.87
-29.20
-30.34
-30.02
-28.27
-25.32
-21.57
-17.41
-13.10
-8.76
-4.49
-0.44
3.11
5.86
7.60
8.35
8.28
7.71
6.92
6.05
5.16
4.19
3.15
2.05
0.98
-0.04
-1.04
-2.11
-3.38
-4.91
-6.73
-8.74
-10.85
-12.93
-14.91
-16.76
-18.51
-20.22
-21.98
-23.88
-25.97
-28.25
-30.63
-32.98
-35.04
-36.53
-37.15
-36.64
-34.87
-31.85
-27.71
-22.73
-17.26
-11.66
-6.24
-1.33
2.88
6.25
8.80
10.64
11.94
12.91
13.70
14.36
14.85
15.10
15.04
14.62
13.88
12.88
11.71
10.44
9.09
7.66
6.09
4.34
2.38
0.24
-1.99
-4.22
-6.32
-8.23
-9.94
-11.50
-13.06
-14.85
-17.08
-19.84
-22.96
-25.95
-28.13
-28.87
-27.86
-25.18
-21.26
-16.66
-11.80
-6.87
-1.90
3.09
7.94
12.34
15.98
18.65
20.39
21.41
22.02
22.43
22.76
22.97
23.00
22.77
22.28
21.57
20.71
19.75
18.75
17.73
16.64
15.41
13.98
12.29
10.40
8.41
6.49
4.75
3.20
1.72
0.12
-1.77
-4.03
-6.63
-9.41
-12.10
-14.37
-15.84
-16.16
-15.17
-12.87
-9.54
-5.57
-1.39
2.69
6.50
9.96
13.07
15.76
17.97
19.61
20.64
21.04
20.90
20.32
19.40
18.25
16.93
15.51
14.02
12.48
10.88
9.18
7.38
5.44
3.35
1.09
-1.37
-4.00
-6.77
-9.56
-12.26
-14.79
-17.13
-19.38
-21.67
-24.10
-26.69
-29.30
-31.65
-33.43
-34.34
-34.20
-32.94
-30.62
-27.34
-23.25
-18.57
-13.54
-8.41
-3.49
0.96
4.70
7.64
9.80
11.29
12.26
12.87
13.22
13.37
13.30
13.01
12.46
11.68
10.76
9.77
8.79
7.84
6.90
5.90
4.75
3.35
1.69
-0.23
-2.30
-4.35
-6.23
-7.82
-9.13
-10.24
-11.38
-12.73
-14.46
-16.58
-18.93
-21.17
-22.84
-23.49
-22.83
-20.82
-17.70
-13.85
-9.69
-5.53
-1.56
2.13
5.46
8.36
10.76
12.63
13.98
14.90
15.51
15.86
15.99
15.92
15.69
15.35
14.96
14.53
14.09
13.60
13.04
12.32
11.38
10.09
8.36
6.22
3.79
1.36
-0.77
-2.39
-3.55
-4.53
-5.72
-7.42
-9.68
-12.26
-14.73
-16.61
-17.58
-17.47
-16.30
-14.18
-11.26
-7.75
-3.85
0.22
4.28
8.25
12.04
15.59
18.76
21.41
23.36
24.58
25.18
25.39
25.47
25.60
25.79
25.93
25.87
25.49
24.79
23.84
22.73
21.51
20.20
18.73
17.03
15.05
12.82
10.38
7.89
5.47
3.21
1.11
-0.91
-3.02
-5.41
-8.15
-11.15
-14.17
-16.80
-18.61
-19.31
-18.79
-17.20
-14.82
-11.98
-8.93
-5.84
-2.86
-0.16
2.05
3.58
4.34
4.40
4.00
3.43
2.91
2.50
2.16
1.73
1.07
0.12
-1.11
-2.47
-3.84
-5.09
-6.21
-7.24
-8.28
-9.38
-10.57
-11.77
-12.95
-14.08
-15.20
-16.37
-17.64
-19.07
-20.71
-22.56
-24.56
-26.58
-28.34
-29.50
-29.72
-28.75
-26.56
-23.31
-19.33
-15.04
-10.82
-6.90
-3.45
-0.52
1.85
3.64
4.83
5.49
5.76
5.87
5.97
6.15
6.32
6.36
6.12
5.59
4.88
4.16
3.54
3.01
2.48
1.80
0.89
-0.23
-1.46
-2.66
-3.74
-4.68
-5.55
-6.47
-7.57
-8.96
-10.71
-12.80
-15.11
-17.38
-19.28
-20.41
-20.51
-19.47
-17.40
-14.61
-11.43
-8.17
-4.95
-1.81
1.27
4.28
7.06
9.43
11.20
12.30
12.79
12.84
12.66
12.41
12.18
12.00
11.88
11.77
11.64
11.40
10.96
10.23
9.17
7.78
6.13
4.35
2.59
1.02
-0.27
-1.27
-2.11
-3.01
-4.21
-5.84
-7.90
-10.18
-12.37
-14.13
-15.20
-15.45
-14.88
-13.57
-11.64
-9.18
-6.27
-2.98
0.57
4.20
7.66
10.74
13.31
15.37
17.03
18.45
19.73
20.94
22.02
22.89
23.49
23.76
23.76
23.54
23.21
22.85
22.46
21.98
21.33
20.44
19.29
17.95
16.48
14.95
13.35
11.66
9.86
7.98
6.04
4.04
1.95
-0.21
-2.41
-4.49
-6.22
-7.38
-7.81
-7.50
-6.54
-5.08
-3.25
-1.16
1.09
3.37
5.49
7.21
8.36
8.88
8.82
8.35
7.68
6.95
6.25
5.61
5.00
4.35
3.61
2.75
1.73
0.56
-0.76
-2.22
-3.79
-5.46
-7.18
-8.89
-10.52
-12.00
-13.32
-14.51
-15.65
-16.88
-18.29
-19.94
-21.83
-23.84
-25.76
-27.37
-28.45
-28.82
-28.39
-27.18
-25.26
-22.80
-20.04
-17.18
-14.43
-11.90
-9.60
-7.54
-5.74
-4.31
-3.42
-3.18
-3.56
-4.33
-5.20
-5.91
-6.37
-6.66
-6.95
-7.38
-7.99
-8.74
-9.59
-10.55
-11.64
-12.93
-14.36
-15.81
-17.06
-17.92
-18.25
-18.04
-17.42
-16.63
-15.94
-15.63
-15.83
-16.54
-17.55
-18.47
-18.86
-18.34
-16.65
-13.79
-9.93
-5.41
-0.55
4.35
9.13
13.69
17.98
21.94
25.45
28.33
30.45
31.76
32.36
32.50
32.44
32.37
32.29
32.01
31.22
29.75
27.57
24.96
22.36
20.17
18.68
17.91
17.71
17.83
18.13
18.55
19.21
20.24
21.78
23.90
26.60
29.77
33.14
36.36
38.94
40.44
40.65
39.66
37.89
35.96
34.41
33.56
33.36
33.50
33.59
33.35
32.66
31.65
30.52
29.51
28.83
28.56
28.62
28.86
29.07
29.12
29.02
28.81
28.55
28.14
27.39
26.08
24.14
21.80
19.57
18.09
17.85
18.94
21.00
23.31
25.09
25.78
25.23
23.68
21.59
19.39
17.31
15.32
13.27
10.99
8.49
5.94
3.61
1.80
0.71
0.40
0.80
1.73
2.95
4.20
5.26
6.02
6.35
6.14
5.19
3.34
0.60
-2.78
-6.27
-9.26
-11.29
-12.32
-12.67
-12.89
-13.38
-14.21
-15.15
-15.93
-16.47
-17.02
-17.96
-19.55
-21.70
-23.97
-25.86
-27.13
-27.88
-28.59
-29.80
-31.87
-34.81
-38.41
-42.30
-46.16
-49.76
-52.87
-55.27
-56.75
-57.11
-56.29
-54.41
-51.73
-48.60
-45.36
-42.29
-39.56
-37.24
-35.28
-33.61
-32.18
-30.98
-30.07
-29.56
-29.50
-29.90
-30.69
-31.67
-32.67
-33.51
-34.08
-34.39
-34.55
-34.72
-35.10
-35.83
-36.91
-38.27
-39.75
-41.18
-42.49
-43.64
-44.70
-45.79
-47.08
-48.75
-50.93
-53.68
-56.87
-60.19
-63.21
-65.41
-66.36
-65.73
-63.39
-59.41
-54.01
-47.56
-40.49
-33.22
-26.08
-19.37
-13.32
-8.17
-4.12
-1.26
0.50
1.44
1.90
2.17
2.36
2.37
2.02
1.18
-0.08
-1.51
-2.85
-3.93
-4.80
-5.70
-6.98
-8.85
-11.41
-14.54
-18.04
-21.71
-25.37
-28.97
-32.54
-36.16
-39.94
-43.96
-48.19
-52.42
-56.29
-59.27
-60.85
-60.62
-58.42
-54.34
-48.67
-41.71
-33.74
-25.00
-15.73
-6.21
3.24
12.24
20.50
27.78
33.99
39.09
43.10
46.07
48.08
49.21
49.56
49.22
48.30
46.90
45.14
43.15
40.99
38.65
36.04
33.08
29.78
26.25
22.67
19.21
15.90
12.61
9.09
5.07
0.48
-4.59
-9.82
-14.77
-18.97
-21.98
-23.50
-23.35
-21.55
-18.30
-13.90
-8.75
-3.19
2.48
8.05
13.32
18.10
22.16
25.33
27.50
28.73
29.17
29.06
28.59
27.89
27.05
26.16
25.36
24.76
24.39
24.09
23.57
22.46
20.52
17.77
14.50
11.12
7.98
5.24
2.81
0.42
-2.22
-5.33
-9.03
-13.31
-18.00
-22.80
-27.22
-30.65
-32.47
-32.31
-30.09
-26.13
-20.99
-15.20
-9.10
-2.76
3.93
11.04
18.47
25.84
32.64
38.44
43.03
46.48
48.98
50.75
51.86
52.26
51.88
50.75
49.07
47.14
45.21
43.33
41.36
39.09
36.43
33.51
30.71
28.42
26.93
26.24
26.14
26.27
26.30
26.00
25.28
24.10
22.53
20.71
18.96
17.72
17.49
18.72
21.67
26.36
32.57
39.94
48.04
56.40
64.52
71.86
77.88
82.05
83.92
83.25
80.12
74.84
67.99
60.18
51.89
43.40
34.76
26.02
17.35
9.05
1.50
-5.09
-10.79
-15.96
-21.10
-26.60
-32.64
-39.15
-45.92
-52.71
-59.35
-65.74
-71.85
-77.69
-83.32
-88.81
-94.21
-99.41
-104.06
-107.57
-109.24
-108.40
-104.60
-97.76
-88.13
-76.28
-62.98
-49.10
-35.48
-22.84
-11.70
-2.33
5.19
10.95
15.10
17.77
19.06
19.02
17.72
15.32
12.16
8.72
5.62
3.51
2.93
4.14
7.12
11.52
16.84
22.61
28.49
34.37
40.26
46.20
52.14
57.87
63.06
67.29
70.28
71.89
72.34
72.09
71.83
72.26
73.84
76.71
80.60
84.94
89.07
92.50
95.04
96.79
98.00
98.87
99.38
99.35
98.49
96.55
93.43
89.17
83.77
77.19
69.27
59.94
49.32
37.90
26.42
15.67
6.21
-1.84
-8.79
-15.18
-21.56
-28.17
-34.94
-41.54
-47.58
-52.80
-57.16
-60.82
-64.02
-66.96
-69.76
-72.45
-74.97
-77.21
-79.00
-80.13
-80.38
-79.53
-77.43
-74.04
-69.44
-63.86
-57.67
-51.26
-45.07
-39.43
-34.57
-30.53
-27.23
-24.52
-22.22
-20.21
-18.42
-16.79
-15.31
-13.94
-12.70
-11.65
-10.82
-10.21
-9.78
-9.44
-9.15
-8.89
-8.69
-8.54
-8.41
-8.24
-8.01
-7.82
-7.85
-8.35
-9.47
-11.23
-13.45
-15.86
-18.10
-19.79
-20.55
-20.09
-18.23
-15.05
-10.80
-5.94
-0.94
3.81
8.07
11.77
14.88
17.40
19.27
20.42
20.84
20.68
20.14
19.49
18.92
18.51
18.14
17.68
17.02
16.14
15.13
14.14
13.21
12.27
11.17
9.76
7.98
5.92
3.74
1.58
-0.48
-2.49
-4.54
-6.72
-9.11
-11.71
-14.47
-17.25
-19.86
-21.98
-23.21
-23.16
-21.56
-18.37
-13.89
-8.63
-3.19
1.90
6.34
10.03
12.99
15.23
16.68
17.28
17.04
16.10
14.76
13.34
12.07
11.02
10.11
9.21
8.24
7.22
6.21
5.26
4.34
3.36
2.23
0.88
-0.67
-2.30
-3.88
-5.28
-6.47
-7.53
-8.59
-9.86
-11.50
-13.60
-16.15
-18.96
-21.66
-23.78
-24.83
-24.51
-22.78
-19.92
-16.36
-12.55
-8.80
-5.23
-1.86
1.32
4.25
6.81
8.89
10.43
11.43
11.97
12.14
12.02
11.73
11.37
11.04
10.80
10.67
10.59
10.46
10.18
9.64
8.81
7.67
6.27
4.72
3.14
1.64
0.28
-0.98
-2.17
-3.36
-4.64
-6.09
-7.80
-9.82
-12.06
-14.24
-15.91
-16.58
-15.92
-13.84
-10.56
-6.46
-1.91
2.81
7.59
12.39
17.12
21.62
25.63
28.90
31.28
32.78
33.55
33.81
33.77
33.53
33.14
32.55
31.78
30.87
29.89
28.93
27.99
27.04
25.91
24.48
22.58
20.16
17.29
14.12
10.88
7.75
4.88
2.24
-0.29
-2.88
-5.74
-8.95
-12.45
-16.03
-19.33
-21.92
-23.43
-23.64
-22.54
-20.33
-17.35
-13.96
-10.44
-7.00
-3.75
-0.77
1.84
3.98
5.58
6.62
7.18
7.38
7.34
7.07
6.54
5.68
4.51
3.15
1.85
0.78
-0.01
-0.64
-1.36
-2.37
-3.77
-5.52
-7.49
-9.54
-11.60
-13.61
-15.52
-17.27
-18.87
-20.40
-22.05
-24.06
-26.55
-29.44
-32.36
-34.73
-35.94
-35.58
-33.58
-30.21
-25.98
-21.42
-16.91
-12.63
-8.58
-4.69
-1.00
2.38
5.26
7.48
9.04
10.03
10.66
11.11
11.45
11.64
11.59
11.21
10.56
9.78
9.04
8.42
7.90
7.29
6.40
5.08
3.30
1.21
-0.97
-3.06
-4.97
-6.72
-8.48
-10.43
-12.69
-15.28
-18.10
-20.95
-23.59
-25.78
-27.28
-27.85
-27.35
-25.67
-22.87
-19.15
-14.79
-10.10
-5.34
-0.64
3.90
8.21
12.12
15.41
17.86
19.35
19.95
19.92
19.61
19.31
19.15
19.07
18.91
18.48
17.70
16.62
15.34
13.97
12.56
11.09
9.48
7.73
5.84
3.90
1.97
0.12
-1.67
-3.45
-5.28
-7.19
-9.24
-11.45
-13.86
-16.43
-19.02
-21.31
-22.90
-23.37
-22.48
-20.24
-16.91
-12.84
-8.36
-3.66
1.20
6.13
10.99
15.51
19.40
22.47
24.71
26.27
27.38
28.22
28.87
29.26
29.28
28.83
27.91
26.64
25.22
23.80
22.46
21.17
19.79
18.21
16.34
14.21
11.91
9.57
7.30
5.16
3.12
1.14
-0.90
-3.10
-5.54
-8.26
-11.22
-14.32
-17.39
-20.18
-22.38
-23.70
-23.90
-22.89
-20.80
-17.91
-14.54
-10.98
-7.34
-3.65
0.09
3.78
7.18
9.99
12.00
13.19
13.72
13.85
13.76
13.56
13.23
12.78
12.23
11.67
11.17
10.74
10.24
9.49
8.29
6.56
4.37
1.89
-0.66
-3.10
-5.37
-7.52
-9.64
-11.82
-14.09
-16.41
-18.77
-21.21
-23.85
-26.73
-29.76
-32.61
-34.76
-35.69
-35.06
-32.91
-29.56
-25.50
-21.18
-16.88
-12.70
-8.66
-4.84
-1.37
1.54
3.75
5.25
6.22
6.86
7.38
7.83
8.19
8.36
8.33
8.12
7.83
7.55
7.32
7.07
6.70
6.12
5.21
3.94
2.30
0.34
-1.79
-3.93
-5.90
-7.59
-9.02
-10.29
-11.56
-13.00
-14.76
-16.95
-19.60
-22.65
-25.83
-28.69
-30.62
-31.10
-29.85
-26.97
-22.92
-18.32
-13.69
-9.30
-5.13
-1.00
3.23
7.49
11.54
14.99
17.57
19.15
19.88
20.07
20.01
19.90
19.74
19.48
19.03
18.41
17.72
17.00
16.26
15.37
14.17
12.56
10.54
8.18
5.61
2.98
0.40
-2.07
-4.33
-6.35
-8.13
-9.72
-11.24
-12.86
-14.72
-16.95
-19.57
-22.40
-25.12
-27.22
-28.19
-27.63
-25.41
-21.69
-16.83
-11.30
-5.55
0.06
5.22
9.75
13.53
16.58
19.02
21.02
22.73
24.25
25.61
26.80
27.78
28.51
28.95
29.08
28.89
28.39
27.69
26.89
26.11
25.35
24.56
23.54
22.07
19.97
17.19
13.87
10.33
6.99
4.18
2.02
0.35
-1.23
-3.15
-5.75
-9.11
-13.04
-17.16
-20.96
-23.94
-25.69
-25.99
-24.81
-22.36
-18.95
-14.97
-10.73
-6.49
-2.42
1.35
4.71
7.58
9.90
11.66
12.87
13.57
13.88
13.93
13.88
13.82
13.75
13.55
13.07
12.23
11.10
9.83
8.60
7.44
6.22
4.71
2.75
0.36
-2.31
-5.00
-7.51
-9.77
-11.85
-13.87
-15.95
-18.14
-20.46
-22.84
-25.24
-27.55
-29.66
-31.39
-32.48
-32.63
-31.60
-29.28
-25.81
-21.48
-16.76
-12.10
-7.84
-4.17
-1.15
1.23
3.02
4.27
5.07
5.56
5.92
6.28
6.67
7.00
7.13
6.92
6.34
5.47
4.49
3.58
2.85
2.26
1.65
0.84
-0.34
-1.92
-3.79
-5.77
-7.68
-9.41
-10.97
-12.49
-14.17
-16.19
-18.65
-21.50
-24.51
-27.31
-29.45
-30.54
-30.32
-28.72
-25.87
-22.00
-17.42
-12.43
-7.31
-2.33
2.28
6.40
9.92
12.81
15.10
16.82
18.03
18.79
19.16
19.22
19.04
18.67
18.13
17.46
16.66
15.76
14.74
13.59
12.24
10.67
8.89
6.91
4.83
2.71
0.63
-1.38
-3.34
-5.31
-7.38
-9.64
-12.12
-14.82
-17.62
-20.36
-22.84
-24.76
-25.82
-25.73
-24.25
-21.37
-17.23
-12.14
-6.49
-0.60
5.24
10.81
15.88
20.23
23.74
26.41
28.41
29.98
31.34
32.55
33.54
34.17
34.31
33.94
33.08
31.82
30.25
28.48
26.59
24.65
22.68
20.59
18.30
15.72
12.83
9.75
6.66
3.68
0.87
-1.85
-4.66
-7.72
-11.08
-14.65
-18.21
-21.46
-24.10
-25.84
-26.48
-25.85
-23.89
-20.66
-16.37
-11.38
-6.11
-0.96
3.77
7.89
11.31
14.00
15.96
17.24
17.91
18.09
17.86
17.29
16.42
15.32
14.06
12.73
11.37
9.97
8.41
6.55
4.32
1.73
-1.07
-3.92
-6.66
-9.21
-11.53
-13.66
-15.69
-17.72
-19.87
-22.32
-25.17
-28.43
-31.89
-35.16
-37.69
-38.94
-38.53
-36.39
-32.71
-27.88
-22.37
-16.63
-10.96
-5.60
-0.76
3.42
6.81
9.36
11.11
12.17
12.71
12.88
12.80
12.56
12.21
11.81
11.40
10.99
10.54
9.97
9.16
7.98
6.31
4.16
1.56
-1.28
-4.17
-6.90
-9.36
-11.56
-13.64
-15.78
-18.15
-20.88
-23.98
-27.30
-30.56
-33.35
-35.19
-35.66
-34.49
-31.67
-27.41
-22.07
-16.05
-9.66
-3.15
3.26
9.35
14.88
19.58
23.26
25.86
27.47
28.28
28.52
28.41
28.07
27.55
26.81
25.80
24.53
23.04
21.41
19.70
17.92
16.00
13.89
11.55
9.06
6.51
3.98
1.49
-1.02
-3.66
-6.51
-9.61
-12.94
-16.41
-19.85
-22.97
-25.40
-26.69
-26.52
-24.73
-21.42
-16.89
-11.53
-5.70
0.36
6.45
12.39
18.00
23.04
27.28
30.60
32.97
34.52
35.42
35.86
35.94
35.69
35.07
34.03
32.58
30.81
28.90
26.98
25.15
23.35
21.43
19.19
16.55
13.54
10.30
7.04
3.92
1.06
-1.54
-3.94
-6.30
-8.80
-11.60
-14.76
-18.15
-21.44
-24.18
-25.91
-26.32
-25.27
-22.79
-19.05
-14.29
-8.85
-3.12
2.44
7.40
11.48
14.55
16.66
17.94
18.54
18.60
18.25
17.63
16.87
16.05
15.20
14.30
13.30
12.14
10.81
9.32
7.69
5.91
3.98
1.88
-0.42
-2.88
-5.45
-8.04
-10.59
-13.09
-15.57
-18.15
-20.94
-23.97
-27.14
-30.24
-32.93
-34.86
-35.73
-35.34
-33.62
-30.69
-26.73
-22.06
-17.00
-11.88
-6.96
-2.47
1.45
4.71
7.31
9.28
10.69
11.63
12.20
12.49
12.57
12.47
12.19
11.69
10.93
9.93
8.70
7.33
5.89
4.43
2.94
1.42
-0.17
-1.84
-3.58
-5.41
-7.33
-9.39
-11.64
-14.09
-16.72
-19.49
-22.35
-25.18
-27.83
-30.04
-31.52
-31.96
-31.13
-28.98
-25.59
-21.21
-16.13
-10.63
-4.97
0.61
5.91
10.69
14.75
17.94
20.24
21.70
22.49
22.78
22.69
22.31
21.64
20.70
19.52
18.20
16.82
15.44
14.11
12.78
11.43
9.99
8.40
6.61
4.57
2.32
-0.03
-2.35
-4.50
-6.45
-8.29
-10.16
-12.22
-14.56
-17.11
-19.63
-21.74
-23.03
-23.14
-21.86
-19.20
-15.33
-10.58
-5.32
0.09
5.35
10.18
14.43
17.98
20.85
23.21
25.24
27.07
28.73
30.07
30.92
31.15
30.78
29.98
29.00
28.06
27.25
26.49
25.61
24.44
22.87
20.90
18.58
16.03
13.34
10.59
7.85
5.17
2.55
-0.06
-2.76
-5.59
-8.60
-11.74
-14.91
-17.94
-20.60
-22.64
-23.79
-23.79
-22.50
-20.01
-16.60
-12.66
-8.64
-4.88
-1.57
1.23
3.52
5.31
6.61
7.41
7.74
7.72
7.47
7.13
6.74
6.26
5.59
4.66
3.51
2.29
1.16
0.22
-0.59
-1.44
-2.50
-3.86
-5.44
-7.03
-8.46
-9.70
-10.84
-12.11
-13.70
-15.71
-18.08
-20.67
-23.29
-25.73
-27.81
-29.36
-30.20
-30.20
-29.24
-27.30
-24.46
-20.90
-16.87
-12.67
-8.57
-4.77
-1.43
1.38
3.62
5.30
6.47
7.21
7.64
7.88
8.03
8.14
8.20
8.19
8.05
7.70
7.12
6.30
5.29
4.13
2.88
1.55
0.13
-1.41
-3.05
-4.75
-6.45
-8.09
-9.71
-11.38
-13.19
-15.19
-17.36
-19.62
-21.85
-23.88
-25.49
-26.44
-26.47
-25.42
-23.30
-20.26
-16.56
-12.51
-8.30
-4.08
0.05
3.94
7.43
10.34
12.63
14.35
15.68
16.77
17.66
18.26
18.44
18.10
17.30
16.26
15.27
14.54
14.13
13.89
13.54
12.81
11.53
9.73
7.60
5.41
3.38
1.65
0.14
-1.28
-2.82
-4.60
-6.65
-8.87
-11.16
-13.37
-15.40
-17.08
-18.16
-18.38
-17.49
-15.46
-12.45
-8.84
-4.99
-1.12
2.72
6.60
10.57
14.52
18.20
21.31
23.68
25.27
26.23
26.74
26.95
26.93
26.69
26.26
25.66
24.95
24.18
23.32
22.32
21.09
19.54
17.68
15.50
13.12
10.65
8.20
5.87
3.73
1.77
-0.07
-1.93
-3.93
-6.15
-8.62
-11.26
-13.93
-16.47
-18.65
-20.28
-21.14
-21.07
-20.02
-18.08
-15.46
-12.40
-9.12
-5.71
-2.22
1.23
4.44
7.11
8.97
9.92
10.06
9.68
9.11
8.57
8.16
7.80
7.43
6.98
6.44
5.79
4.95
3.86
2.48
0.82
-0.99
-2.86
-4.67
-6.45
-8.22
-10.06
-11.94
-13.82
-15.62
-17.30
-18.92
-20.60
-22.48
-24.58
-26.78
-28.77
-30.12
-30.44
-29.49
-27.26
-24.04
-20.25
-16.31
-12.51
-8.92
-5.50
-2.16
1.07
4.05
6.55
8.43
9.66
10.40
10.82
11.09
11.24
11.21
10.87
10.19
9.21
8.09
6.98
5.98
5.09
4.21
3.18
1.87
0.24
-1.68
-3.74
-5.77
-7.67
-9.40
-11.05
-12.80
-14.79
-17.16
-19.85
-22.70
-25.39
-27.49
-28.61
-28.45
-26.91
-24.13
-20.42
-16.20
-11.79
-7.41
-3.16
0.98
4.99
8.81
12.32
15.36
17.73
19.31
20.05
20.05
19.54
18.82
18.24
17.97
18.03
18.23
18.30
17.99
17.18
15.92
14.37
12.66
10.85
8.98
7.04
5.03
3.01
1.01
-0.97
-2.99
-5.11
-7.38
-9.80
-12.31
-14.76
-16.97
-18.65
-19.48
-19.16
-17.53
-14.61
-10.66
-6.01
-1.03
4.02
8.93
13.56
17.77
21.39
24.28
26.34
27.64
28.28
28.47
28.34
28.00
27.42
26.58
25.43
23.99
22.33
20.61
18.98
17.51
16.16
14.79
13.20
11.25
8.90
6.22
3.42
0.68
-1.87
-4.21
-6.49
-8.89
-11.58
-14.61
-17.86
-21.03
-23.70
-25.47
-26.04
-25.28
-23.28
-20.22
-16.37
-12.00
-7.38
-2.78
1.56
5.40
8.53
10.82
12.26
12.96
13.11
12.94
12.61
12.15
11.54
10.73
9.73
8.65
7.60
6.69
5.87
4.94
3.69
1.93
-0.36
-3.06
-5.94
-8.79
-11.48
-13.96
-16.26
-18.43
-20.59
-22.86
-25.34
-28.11
-31.08
-33.98
-36.35
-37.64
-37.39
-35.36
-31.64
-26.66
-20.97
-15.12
-9.48
-4.25
0.53
4.86
8.66
11.84
14.28
15.95
16.94
17.42
17.54
17.39
16.93
16.12
14.99
13.66
12.31
11.06
9.89
8.64
7.14
5.27
3.08
0.73
-1.60
-3.78
-5.80
-7.67
-9.49
-11.32
-13.25
-15.41
-17.92
-20.84
-24.08
-27.38
-30.31
-32.43
-33.37
-32.95
-31.18
-28.20
-24.20
-19.32
-13.70
-7.54
-1.17
5.01
10.56
15.17
18.72
21.27
23.02
24.21
25.03
25.60
25.97
26.13
26.03
25.57
24.68
23.36
21.74
19.97
18.18
16.41
14.59
12.56
10.22
7.55
4.67
1.76
-0.99
-3.51
-5.81
-8.02
-10.27
-12.65
-15.19
-17.86
-20.51
-22.94
-24.87
-25.98
-25.98
-24.62
-21.77
-17.47
-11.96
-5.60
1.14
7.76
13.86
19.19
23.64
27.21
29.95
31.96
33.28
34.00
34.23
34.13
33.83
33.41
32.86
32.11
31.09
29.74
28.09
26.22
24.18
21.97
19.53
16.79
13.74
10.46
7.14
3.99
1.17
-1.27
-3.42
-5.45
-7.56
-9.89
-12.54
-15.54
-18.86
-22.34
-25.72
-28.60
-30.45
-30.85
-29.53
-26.52
-22.14
-16.89
-11.27
-5.69
-0.37
4.55
8.94
12.64
15.46
17.31
18.20
18.34
18.05
17.67
17.45
17.42
17.42
17.20
16.51
15.25
13.49
11.47
9.42
7.50
5.71
3.93
2.00
-0.16
-2.53
-5.00
-7.47
-9.89
-12.31
-14.79
-17.40
-20.16
-23.03
-25.96
-28.90
-31.77
-34.37
-36.40
-37.47
-37.20
-35.39
-32.11
-27.68
-22.52
-17.07
-11.61
-6.32
-1.35
3.15
6.96
9.94
12.06
13.47
14.40
15.09
15.64
16.09
16.39
16.47
16.32
15.91
15.23
14.30
13.20
12.08
11.07
10.21
9.36
8.25
6.61
4.33
1.54
-1.47
-4.37
-6.98
-9.34
-11.63
-14.04
-16.72
-19.67
-22.82
-26.04
-29.17
-31.98
-34.15
-35.29
-35.06
-33.27
-29.96
-25.40
-19.99
-14.15
-8.21
-2.35
3.24
8.39
12.88
16.52
19.22
21.02
22.14
22.85
23.41
23.92
24.33
24.50
24.28
23.60
22.53
21.21
19.83
18.47
17.15
15.77
14.22
12.42
10.38
8.18
5.92
3.66
1.41
-0.84
-3.11
-5.41
-7.68
-9.92
-12.21
-14.65
-17.35
-20.28
-23.21
-25.73
-27.31
-27.52
-26.14
-23.25
-19.20
-14.42
-9.27
-3.98
1.37
6.74
11.97
16.85
21.11
24.53
27.07
28.81
29.92
30.57
30.86
30.84
30.48
29.79
28.79
27.50
26.04
24.53
23.07
21.76
20.56
19.33
17.89
16.09
13.93
11.54
9.15
6.91
4.83
2.76
0.50
-2.06
-4.88
-7.79
-10.59
-13.19
-15.62
-18.06
-20.62
-23.22
-25.57
-27.16
-27.53
-26.37
-23.70
-19.83
-15.24
-10.39
-5.61
-1.06
3.17
6.98
10.23
12.72
14.36
15.23
15.55
15.61
15.64
15.71
15.71
15.51
15.00
14.16
13.07
11.84
10.48
8.99
7.34
5.50
3.50
1.39
-0.79
-3.00
-5.20
-7.32
-9.33
-11.19
-12.95
-14.74
-16.69
-18.95
-21.61
-24.66
-27.95
-31.13
-33.73
-35.27
-35.39
-34.02
-31.32
-27.66
-23.45
-19.01
-14.55
-10.18
-5.97
-2.03
1.48
4.43
6.73
8.36
9.43
10.12
10.60
11.02
11.40
11.68
11.72
11.40
10.68
9.62
8.37
7.10
5.95
4.95
4.04
3.07
1.89
0.40
-1.44
-3.55
-5.80
-8.05
-10.22
-12.28
-14.31
-16.40
-18.64
-21.06
-23.63
-26.25
-28.69
-30.64
-31.76
-31.73
-30.40
-27.75
-23.96
-19.32
-14.14
-8.72
-3.31
1.84
6.54
10.58
13.80
16.20
17.85
18.90
19.50
19.76
19.74
19.48
19.03
18.47
17.88
17.28
16.64
15.86
14.87
13.61
12.11
10.39
8.51
6.53
4.47
2.41
0.42
-1.44
-3.19
-4.90
-6.72
-8.79
-11.18
-13.85
-16.63
-19.26
-21.41
-22.76
-23.04
-22.13
-20.02
-16.83
-12.78
-8.10
-3.02
2.29
7.68
12.98
17.99
22.44
26.09
28.74
30.36
31.06
31.12
30.86
30.56
30.35
30.23
30.09
29.75
29.10
28.03
26.55
24.71
22.59
20.31
17.97
15.67
13.44
11.26
9.07
6.78
4.32
1.64
-1.27
-4.42
-7.83
-11.54
-15.54
-19.71
-23.75
-27.25
-29.72
-30.79
-30.28
-28.28
-25.07
-21.00
-16.44
-11.62
-6.75
-2.00
2.44
6.34
9.43
11.54
12.64
12.88
12.56
12.00
11.46
11.06
10.76
10.43
9.95
9.30
8.51
7.66
6.77
5.80
4.66
3.24
1.53
-0.46
-2.62
-4.83
-7.00
-9.05
-10.96
-12.74
-14.49
-16.32
-18.35
-20.59
-22.91
-25.00
-26.40
-26.70
-25.57
-22.97
-19.09
-14.31
-9.06
-3.73
1.40
6.08
10.11
13.28
15.43
16.57
16.86
16.63
16.24
15.92
15.74
15.56
15.23
14.62
13.73
12.70
11.69
10.76
9.87
8.84
7.47
5.70
3.55
1.22
-1.06
-3.14
-5.05
-6.95
-9.09
-11.68
-14.77
-18.24
-21.78
-25.02
-27.57
-29.11
-29.39
-28.30
-25.84
-22.19
-17.65
-12.62
-7.48
-2.54
2.02
6.11
9.67
12.63
14.89
16.32
16.91
16.74
16.00
14.94
13.74
12.55
11.43
10.46
9.71
9.19
8.83
8.41
7.64
6.27
4.26
1.78
-0.86
-3.32
-5.47
-7.34
-9.14
-11.11
-13.40
-16.10
-19.15
-22.37
-25.48
-28.09
-29.74
-30.02
-28.75
-26.00
-22.08
-17.46
-12.55
-7.62
-2.74
2.09
6.88
11.56
15.90
19.63
22.47
24.24
24.97
24.79
23.97
22.76
21.35
19.82
18.21
16.57
14.91
13.29
11.67
9.97
8.06
5.84
3.30
0.57
-2.18
-4.81
-7.27
-9.61
-11.99
-14.54
-17.40
-20.59
-24.03
-27.47
-30.54
-32.80
-33.81
-33.30
-31.21
-27.71
-23.09
-17.72
-11.86
-5.68
0.71
7.19
13.53
19.39
24.37
28.18
30.67
31.94
32.24
31.85
30.98
29.71
28.07
26.16
24.17
22.30
20.68
19.24
17.70
15.76
13.22
10.08
6.58
2.99
-0.48
-3.73
-6.79
-9.69
-12.48
-15.18
-17.89
-20.78
-24.01
-27.62
-31.41
-34.93
-37.57
-38.77
-38.20
-35.84
-31.92
-26.81
-20.90
-14.45
-7.68
-0.79
5.97
12.23
17.63
21.91
24.94
26.81
27.78
28.15
28.19
28.01
27.58
26.83
25.68
24.20
22.54
20.87
19.31
17.81
16.20
14.29
11.92
9.08
5.85
2.45
-0.91
-4.03
-6.81
-9.31
-11.68
-14.20
-17.14
-20.64
-24.65
-28.89
-32.96
-36.39
-38.76
-39.75
-39.16
-36.93
-33.17
-28.14
-22.19
-15.67
-8.91
-2.15
4.44
10.64
16.23
20.92
24.52
26.96
28.29
28.73
28.54
27.98
27.26
26.53
25.85
25.22
24.60
23.91
23.06
21.96
20.58
18.88
16.88
14.63
12.17
9.57
6.86
4.06
1.20
-1.65
-4.41
-6.99
-9.35
-11.58
-13.82
-16.23
-18.92
-21.86
-24.85
-27.57
-29.62
-30.63
-30.31
-28.56
-25.48
-21.33
-16.47
-11.31
-6.12
-1.06
3.79
8.40
12.68
16.43
19.41
21.48
22.68
23.19
23.34
23.40
23.47
23.52
23.46
23.23
22.87
22.49
22.12
21.68
20.99
19.88
18.28
16.26
13.95
11.49
8.98
6.45
3.97
1.64
-0.45
-2.23
-3.75
-5.12
-6.49
-7.97
-9.64
-11.49
-13.49
-15.57
-17.56
-19.23
-20.29
-20.46
-19.59
-17.74
-15.10
-11.90
-8.40
-4.75
-1.07
2.48
5.75
8.54
10.73
12.24
13.09
13.34
13.11
12.56
11.88
11.25
10.80
10.54
10.38
10.14
9.69
8.96
7.98
6.83
5.57
4.23
2.82
1.32
-0.25
-1.85
-3.46
-5.05
-6.60
-8.07
-9.45
-10.77
-12.14
-13.73
-15.65
-17.94
-20.48
-23.03
-25.26
-26.89
-27.70
-27.55
-26.42
-24.38
-21.54
-18.07
-14.14
-9.97
-5.77
-1.74
1.95
5.18
7.82
9.77
10.97
11.47
11.40
11.03
10.62
10.38
10.36
10.48
10.56
10.39
9.92
9.17
8.25
7.31
6.43
5.62
4.84
4.06
3.25
2.38
1.40
0.24
-1.17
-2.85
-4.71
-6.63
-8.47
-10.15
-11.69
-13.17
-14.71
-16.37
-18.17
-20.04
-21.83
-23.37
-24.45
-24.83
-24.32
-22.83
-20.42
-17.24
-13.57
-9.67
-5.73
-1.89
1.73
5.01
7.81
9.98
11.47
12.31
12.71
12.91
13.13
13.47
13.84
14.05
13.89
13.29
12.35
11.27
10.28
9.51
8.92
8.40
7.78
6.95
5.88
4.61
3.18
1.65
0.04
-1.60
-3.18
-4.62
-5.82
-6.79
-7.59
-8.35
-9.25
-10.47
-12.12
-14.22
-16.62
-19.02
-21.00
-22.17
-22.22
-21.05
-18.78
-15.71
-12.25
-8.73
-5.36
-2.20
0.78
3.61
6.24
8.53
10.33
11.58
12.38
12.96
13.51
14.18
14.90
15.51
15.85
15.84
15.53
15.08
14.62
14.29
14.10
14.04
13.97
13.76
13.26
12.37
11.15
9.74
8.30
7.00
5.83
4.71
3.51
2.17
0.74
-0.69
-2.06
-3.41
-4.92
-6.78
-9.08
-11.66
-14.17
-16.14
-17.17
-17.05
-15.87
-13.87
-11.40
-8.75
-6.09
-3.44
-0.83
1.76
4.22
6.43
8.24
9.59
10.49
11.06
11.41
11.65
11.80
11.85
11.75
11.46
10.99
10.38
9.64
8.79
7.83
6.74
5.52
4.24
2.95
1.70
0.50
-0.72
-2.04
-3.56
-5.29
-7.18
-9.10
-10.90
-12.49
-13.85
-15.06
-16.30
-17.72
-19.43
-21.39
-23.38
-25.05
-25.99
-25.92
-24.71
-22.49
-19.55
-16.26
-12.92
-9.72
-6.77
-4.06
-1.54
0.78
2.91
4.78
6.36
7.61
8.50
9.06
9.33
9.40
9.36
9.29
9.23
9.21
9.23
9.25
9.22
9.04
8.59
7.78
6.55
4.95
3.15
1.37
-0.13
-1.28
-2.15
-2.98
-4.04
-5.50
-7.36
-9.49
-11.69
-13.79
-15.78
-17.68
-19.56
-21.34
-22.88
-23.90
-24.15
-23.48
-21.87
-19.43
-16.37
-12.89
-9.12
-5.15
-1.06
3.03
6.88
10.22
12.81
14.53
15.46
15.84
15.94
16.02
16.18
16.44
16.69
16.81
16.67
16.23
15.49
14.54
13.52
12.54
11.59
10.60
9.40
7.89
6.11
4.21
2.36
0.67
-0.87
-2.38
-3.99
-5.73
-7.55
-9.39
-11.30
-13.41
-15.88
-18.71
-21.63
-24.16
-25.75
-26.00
-24.81
-22.39
-19.12
-15.36
-11.38
-7.30
-3.19
0.87
4.74
8.25
11.25
13.66
15.45
16.68
17.40
17.73
17.84
17.87
17.97
18.15
18.32
18.32
17.97
17.19
16.01
14.54
12.91
11.21
9.49
7.77
6.07
4.43
2.87
1.38
-0.13
-1.74
-3.54
-5.53
-7.65
-9.83
-12.00
-14.18
-16.40
-18.68
-20.93
-22.94
-24.41
-24.98
-24.37
-22.49
-19.44
-15.54
-11.16
-6.63
-2.13
2.30
6.63
10.77
14.46
17.39
19.35
20.32
20.56
20.44
20.28
20.24
20.29
20.33
20.24
19.99
19.59
19.03
18.24
17.10
15.59
13.76
11.73
9.65
7.64
5.69
3.74
1.76
-0.30
-2.42
-4.57
-6.74
-8.90
-11.08
-13.31
-15.63
-18.11
-20.72
-23.34
-25.71
-27.43
-28.12
-27.51
-25.54
-22.33
-18.20
-13.48
-8.51
-3.58
1.07
5.22
8.71
11.41
13.28
14.38
14.85
14.85
14.61
14.31
14.04
13.78
13.42
12.84
11.97
10.85
9.62
8.44
7.37
6.35
5.23
3.82
2.02
-0.12
-2.45
-4.76
-6.93
-8.91
-10.78
-12.65
-14.62
-16.78
-19.16
-21.76
-24.56
-27.48
-30.30
-32.66
-34.09
-34.15
-32.61
-29.51
-25.12
-19.88
-14.20
-8.35
-2.51
3.16
8.47
13.19
17.04
19.89
21.70
22.66
23.01
23.03
22.91
22.77
22.61
22.35
21.89
21.19
20.21
19.00
17.63
16.16
14.62
12.98
11.20
9.20
6.92
4.37
1.62
-1.23
-4.02
-6.67
-9.12
-11.41
-13.61
-15.85
-18.23
-20.85
-23.78
-26.95
-30.12
-32.89
-34.71
-35.13
-33.85
-30.91
-26.63
-21.48
-15.88
-10.12
-4.32
1.46
7.14
12.55
17.42
21.48
24.52
26.47
27.44
27.65
27.41
26.94
26.40
25.81
25.14
24.36
23.43
22.37
21.16
19.79
18.19
16.28
14.07
11.60
8.97
6.30
3.66
1.08
-1.46
-3.98
-6.52
-9.07
-11.64
-14.21
-16.82
-19.54
-22.47
-25.57
-28.68
-31.40
-33.24
-33.71
-32.53
-29.62
-25.19
-19.58
-13.19
-6.40
0.42
6.97
12.94
18.09
22.26
25.36
27.46
28.70
29.29
29.48
29.47
29.36
29.14
28.77
28.18
27.38
26.40
25.29
24.06
22.67
21.04
19.15
17.00
14.67
12.24
9.73
7.15
4.44
1.62
-1.28
-4.15
-6.86
-9.37
-11.71
-14.04
-16.56
-19.44
-22.70
-26.11
-29.27
-31.58
-32.51
-31.69
-29.05
-24.84
-19.51
-13.61
-7.63
-1.90
3.41
8.25
12.57
16.26
19.15
21.08
22.04
22.18
21.84
21.39
21.03
20.78
20.43
19.75
18.62
17.10
15.41
13.76
12.24
10.75
9.12
7.23
5.05
2.73
0.40
-1.84
-4.02
-6.27
-8.70
-11.39
-14.30
-17.38
-20.57
-23.85
-27.23
-30.71
-34.11
-37.12
-39.29
-40.10
-39.17
-36.36
-31.85
-26.09
-19.70
-13.29
-7.27
-1.83
3.05
7.45
11.40
14.81
17.51
19.35
20.28
20.45
20.13
19.60
19.04
18.50
17.92
17.24
16.45
15.58
14.67
13.72
12.65
11.33
9.67
7.65
5.30
2.69
-0.03
-2.75
-5.36
-7.77
-9.96
-12.00
-14.03
-16.23
-18.79
-21.80
-25.23
-28.92
-32.53
-35.60
-37.60
-38.03
-36.60
-33.32
-28.46
-22.56
-16.14
-9.63
-3.28
2.76
8.43
13.57
17.99
21.48
23.91
25.31
25.89
25.92
25.70
25.42
25.13
24.78
24.27
23.52
22.53
21.33
19.93
18.37
16.61
14.60
12.33
9.80
7.09
4.28
1.53
-1.06
-3.37
-5.39
-7.24
-9.11
-11.25
-13.86
-17.04
-20.74
-24.77
-28.76
-32.23
-34.60
-35.31
-34.02
-30.74
-25.86
-19.97
-13.71
-7.49
-1.49
4.32
9.92
15.19
19.87
23.68
26.46
28.25
29.25
29.73
29.88
29.80
29.49
28.95
28.17
27.15
25.94
24.59
23.15
21.68
20.22
18.75
17.23
15.56
13.63
11.37
8.77
5.90
2.91
-0.04
-2.83
-5.40
-7.83
-10.26
-12.89
-15.88
-19.27
-22.92
-26.50
-29.52
-31.51
-32.07
-31.02
-28.39
-24.36
-19.29
-13.53
-7.48
-1.45
4.29
9.53
14.11
17.91
20.86
22.92
24.13
24.61
24.56
24.22
23.78
23.37
22.97
22.46
21.71
20.69
19.42
18.02
16.56
15.02
13.29
11.19
8.63
5.65
2.41
-0.83
-3.87
-6.63
-9.13
-11.49
-13.86
-16.37
-19.13
-22.20
-25.60
-29.26
-32.91
-36.17
-38.48
-39.36
-38.47
-35.81
-31.65
-26.47
-20.75
-14.89
-9.13
-3.63
1.46
5.96
9.66
12.45
14.32
15.45
16.08
16.48
16.80
17.08
17.23
17.15
16.74
16.00
15.02
13.95
12.92
11.97
11.09
10.15
9.02
7.57
5.76
3.63
1.27
-1.23
-3.80
-6.42
-9.05
-11.67
-14.23
-16.72
-19.14
-21.61
-24.28
-27.26
-30.49
-33.67
-36.31
-37.82
-37.75
-35.88
-32.30
-27.35
-21.47
-15.13
-8.72
-2.52
3.26
8.51
13.15
17.10
20.31
22.72
24.32
25.17
25.44
25.33
25.04
24.67
24.22
23.59
22.73
21.64
20.40
19.11
17.85
16.61
15.32
13.88
12.16
10.11
7.72
5.07
2.31
-0.37
-2.82
-4.97
-6.86
-8.64
-10.51
-12.67
-15.26
-18.31
-21.73
-25.33
-28.77
-31.66
-33.57
-34.11
-33.05
-30.39
-26.31
-21.19
-15.47
-9.54
-3.65
2.02
7.39
12.35
16.74
20.37
23.08
24.85
25.79
26.16
26.23
26.15
25.97
25.66
25.15
24.47
23.67
22.81
21.87
20.76
19.36
17.67
15.82
14.02
12.43
11.01
9.59
7.93
5.90
3.59
1.21
-0.99
-2.91
-4.60
-6.25
-8.02
-10.05
-12.43
-15.20
-18.36
-21.80
-25.20
-28.03
-29.69
-29.67
-27.78
-24.18
-19.34
-13.87
-8.34
-3.13
1.58
5.76
9.46
12.70
15.48
17.74
19.40
20.48
21.08
21.39
21.65
21.95
22.24
22.36
22.13
21.47
20.44
19.19
17.84
16.43
14.91
13.17
11.20
9.05
6.82
4.58
2.29
-0.15
-2.82
-5.76
-8.85
-11.92
-14.78
-17.34
-19.64
-21.81
-24.07
-26.58
-29.39
-32.27
-34.81
-36.46
-36.69
-35.22
-32.07
-27.58
-22.28
-16.67
-11.15
-5.97
-1.24
2.93
6.42
9.12
10.96
12.01
12.44
12.54
12.57
12.69
12.94
13.18
13.23
12.93
12.23
11.22
10.04
8.82
7.57
6.21
4.59
2.65
0.41
-2.00
-4.38
-6.59
-8.57
-10.33
-11.92
-13.42
-14.88
-16.42
-18.16
-20.31
-23.01
-26.28
-29.91
-33.42
-36.18
-37.58
-37.26
-35.15
-31.54
-26.92
-21.79
-16.50
-11.22
-5.96
-0.76
4.31
9.00
13.04
16.22
18.47
19.91
20.80
21.39
21.87
22.34
22.75
23.06
23.16
22.95
22.37
21.39
20.05
18.46
16.79
15.13
13.49
11.76
9.80
7.50
4.86
1.98
-0.99
-3.87
-6.58
-9.07
-11.35
-13.47
-15.51
-17.60
-19.90
-22.57
-25.64
-28.89
-31.85
-33.86
-34.27
-32.68
-29.09
-23.82
-17.46
-10.59
-3.68
2.96
9.12
14.63
19.36
23.24
26.25
28.47
30.02
31.05
31.66
31.89
31.74
31.20
30.27
28.99
27.48
25.87
24.26
22.68
21.07
19.33
17.41
15.30
13.05
10.77
8.50
6.26
4.01
1.73
-0.60
-2.96
-5.30
-7.56
-9.72
-11.79
-13.86
-16.04
-18.43
-21.00
-23.57
-25.79
-27.25
-27.57
-26.57
-24.24
-20.75
-16.39
-11.49
-6.35
-1.27
3.54
7.92
11.73
14.93
17.42
19.18
20.22
20.63
20.62
20.42
20.21
20.03
19.75
19.18
18.13
16.57
14.64
12.57
10.58
8.75
7.03
5.22
3.14
0.70
-2.05
-4.95
-7.80
-10.43
-12.77
-14.84
-16.77
-18.74
-20.89
-23.34
-26.06
-28.93
-31.70
-34.00
-35.46
-35.73
-34.66
-32.25
-28.76
-24.55
-19.99
-15.36
-10.79
-6.31
-1.96
2.17
5.92
9.07
11.42
12.93
13.69
13.93
13.90
13.79
13.65
13.43
12.99
12.27
11.30
10.21
9.18
8.27
7.45
6.53
5.33
3.71
1.67
-0.66
-3.13
-5.57
-7.87
-10.00
-11.98
-13.87
-15.83
-18.00
-20.53
-23.49
-26.80
-30.20
-33.30
-35.61
-36.70
-36.28
-34.29
-30.89
-26.37
-21.10
-15.41
-9.53
-3.65
2.10
7.53
12.45
16.68
20.07
22.58
24.31
25.44
26.18
26.71
27.06
27.17
26.90
26.15
24.91
23.32
21.57
19.82
18.13
16.43
14.62
12.61
10.39
8.06
5.69
3.34
1.00
-1.34
-3.68
-5.97
-8.19
-10.40
-12.74
-15.44
-18.61
-22.23
-25.99
-29.35
-31.70
-32.48
-31.42
-28.53
-24.13
-18.70
-12.72
-6.55
-0.37
5.78
11.85
17.72
23.13
27.79
31.44
33.99
35.54
36.30
36.56
36.52
36.27
35.80
35.07
34.04
32.74
31.22
29.52
27.61
25.41
22.83
19.83
16.52
13.14
9.93
7.07
4.55
2.24
-0.10
-2.70
-5.65
-8.92
-12.42
-16.04
-19.73
-23.41
-26.95
-30.13
-32.58
-33.90
-33.81
-32.16
-29.05
-24.78
-19.79
-14.47
-9.15
-3.99
0.93
5.54
9.74
13.31
16.04
17.83
18.71
18.90
18.72
18.41
18.03
17.49
16.62
15.34
13.71
11.95
10.31
8.88
7.61
6.24
4.52
2.26
-0.51
-3.64
-6.85
-9.91
-12.64
-15.04
-17.22
-19.39
-21.78
-24.57
-27.78
-31.30
-34.85
-38.05
-40.53
-41.94
-42.01
-40.64
-37.82
-33.71
-28.58
-22.77
-16.61
-10.39
-4.30
1.52
6.92
11.75
15.85
19.09
21.44
22.98
23.89
24.38
24.61
24.60
24.30
23.60
22.43
20.78
18.76
16.51
14.22
12.01
9.90
7.83
5.67
3.25
0.48
-2.63
-5.88
-9.00
-11.78
-14.11
-16.10
-18.00
-20.08
-22.55
-25.46
-28.71
-32.06
-35.11
-37.33
-38.20
-37.27
-34.34
-29.61
-23.56
-16.81
-9.95
-3.33
2.86
8.55
13.69
18.18
21.96
24.97
27.24
28.85
29.91
30.51
30.76
30.71
30.38
29.73
28.66
27.11
25.14
22.96
20.85
19.02
17.50
16.07
14.42
12.27
9.57
6.48
3.30
0.32
-2.35
-4.74
-7.02
-9.40
-12.02
-14.95
-18.19
-21.67
-25.28
-28.77
-31.76
-33.78
-34.37
-33.16
-30.04
-25.19
-19.01
-12.05
-4.82
2.28
9.01
15.24
20.84
25.67
29.57
32.47
34.40
35.50
36.02
36.15
36.01
35.59
34.80
33.60
32.00
30.12
28.12
26.10
24.11
22.05
19.84
17.37
14.64
11.73
8.75
5.79
2.91
0.16
-2.49
-5.01
-7.42
-9.75
-12.05
-14.41
-16.90
-19.60
-22.54
-25.63
-28.67
-31.26
-32.91
-33.17
-31.73
-28.58
-24.03
-18.51
-12.52
-6.47
-0.62
4.81
9.63
13.63
16.60
18.52
19.53
19.96
20.18
20.47
20.90
21.30
21.36
20.84
19.66
17.99
16.16
14.52
13.26
12.31
11.39
10.20
8.50
6.28
3.65
0.82
-2.04
-4.84
-7.59
-10.32
-13.14
-16.10
-19.30
-22.76
-26.49
-30.39
-34.25
-37.74
-40.45
-41.93
-41.81
-39.93
-36.40
-31.60
-26.06
-20.29
-14.68
-9.41
-4.51
-0.00
4.05
7.51
10.27
12.28
13.66
14.60
15.29
15.84
16.23
16.34
16.06
15.33
14.23
12.92
11.57
10.27
8.99
7.61
5.99
4.02
1.73
-0.73
-3.17
-5.41
-7.38
-9.18
-10.96
-12.95
-15.31
-18.14
-21.39
-24.96
-28.66
-32.22
-35.37
-37.76
-39.05
-38.96
-37.31
-34.11
-29.57
-24.02
-17.82
-11.28
-4.66
1.87
8.12
13.90
18.96
23.08
26.17
28.24
29.49
30.17
30.51
30.65
30.56
30.14
29.22
27.69
25.61
23.19
20.69
18.36
16.27
14.34
12.36
10.17
7.67
4.95
2.16
-0.55
-3.11
-5.53
-7.89
-10.25
-12.67
-15.19
-17.86
-20.71
-23.75
-26.85
-29.77
-32.12
-33.49
-33.52
-32.08
-29.18
-25.04
-19.93
-14.14
-7.94
-1.53
4.89
11.08
16.83
21.91
26.20
29.61
32.20
34.06
35.32
36.08
36.40
36.26
35.59
34.36
32.60
30.44
28.09
25.78
23.68
21.84
20.21
18.62
16.90
14.87
12.44
9.62
6.52
3.33
0.25
-2.61
-5.25
-7.76
-10.35
-13.20
-16.40
-19.95
-23.65
-27.19
-30.14
-32.08
-32.64
-31.59
-28.93
-24.85
-19.76
-14.11
-8.32
-2.72
2.52
7.29
11.47
14.96
17.67
19.55
20.64
21.09
21.12
20.92
20.63
20.29
19.85
19.20
18.30
17.12
15.72
14.17
12.56
10.87
9.04
6.98
4.64
2.04
-0.73
-3.55
-6.34
-9.05
-11.68
-14.23
-16.73
-19.22
-21.74
-24.35
-27.03
-29.71
-32.16
-34.12
-35.27
-35.31
-34.01
-31.31
-27.30
-22.29
-16.70
-11.01
-5.60
-0.71
3.54
7.06
9.77
11.58
12.51
12.71
12.50
12.19
12.01
12.03
12.13
12.15
11.96
11.51
10.79
9.80
8.52
6.92
5.01
2.87
0.61
-1.63
-3.73
-5.65
-7.37
-9.00
-10.71
-12.66
-14.99
-17.73
-20.76
-23.89
-26.93
-29.75
-32.24
-34.25
-35.55
-35.85
-34.94
-32.75
-29.38
-25.04
-19.94
-14.20
-7.96
-1.41
5.16
11.32
16.69
20.93
23.94
25.78
26.66
26.89
26.80
26.65
26.55
26.46
26.21
25.61
24.60
23.23
21.67
20.06
18.42
16.67
14.68
12.39
9.81
7.08
4.32
1.61
-1.03
-3.63
-6.22
-8.78
-11.30
-13.79
-16.28
-18.89
-21.70
-24.69
-27.74
-30.59
-32.87
-34.28
-34.51
-33.39
-30.79
-26.75
-21.45
-15.21
-8.41
-1.48
5.22
11.45
17.04
21.86
25.80
28.81
30.90
32.18
32.83
33.02
32.91
32.59
32.10
31.47
30.67
29.65
28.30
26.60
24.62
22.50
20.40
18.38
16.37
14.22
11.80
9.10
6.21
3.28
0.45
-2.25
-4.85
-7.38
-9.88
-12.42
-15.12
-18.08
-21.30
-24.57
-27.46
-29.43
-30.00
-28.95
-26.31
-22.35
-17.46
-11.99
-6.25
-0.50
4.99
9.95
14.12
17.36
19.66
21.14
22.01
22.50
22.78
22.90
22.82
22.43
21.68
20.58
19.25
17.82
16.38
14.91
13.33
11.53
9.48
7.21
4.82
2.38
-0.08
-2.60
-5.22
-7.91
-10.60
-13.19
-15.64
-18.00
-20.40
-22.99
-25.85
-28.90
-31.86
-34.36
-35.96
-36.34
-35.31
-32.87
-29.21
-24.63
-19.53
-14.27
-9.14
-4.31
0.11
4.01
7.24
9.60
10.99
11.48
11.37
11.09
11.02
11.27
11.67
11.88
11.59
10.74
9.48
8.07
6.70
5.41
4.10
2.64
0.97
-0.88
-2.82
-4.80
-6.81
-8.86
-10.94
-13.06
-15.22
-17.43
-19.78
-22.31
-25.05
-27.92
-30.77
-33.33
-35.32
-36.40
-36.27
-34.78
-31.91
-27.86
-22.91
-17.37
-11.45
-5.28
1.03
7.26
13.06
18.03
21.80
24.28
25.61
26.17
26.32
26.33
26.27
26.08
25.67
25.03
24.19
23.22
22.11
20.84
19.31
17.48
15.36
12.99
10.44
7.79
5.12
2.50
-0.03
-2.44
-4.77
-7.10
-9.48
-11.98
-14.62
-17.42
-20.43
-23.65
-27.01
-30.28
-33.05
-34.86
-35.28
-34.09
-31.36
-27.35
-22.41
-16.89
-10.98
-4.84
1.41
7.57
13.36
18.43
22.52
25.55
27.60
28.95
29.88
30.56
31.04
31.20
30.87
29.94
28.45
26.58
24.62
22.79
21.24
19.90
18.60
17.09
15.21
12.93
10.36
7.67
5.02
2.50
0.08
-2.31
-4.74
-7.28
-9.97
-12.86
-16.00
-19.38
-22.86
-26.12
-28.69
-30.05
-29.85
-28.01
-24.70
-20.30
-15.22
-9.82
-4.30
1.19
6.51
11.51
16.00
19.78
22.73
24.79
26.01
26.53
26.52
26.19
25.67
25.05
24.31
23.39
22.23
20.81
19.17
17.40
15.58
13.71
11.77
9.70
7.47
5.09
2.61
0.11
-2.36
-4.77
-7.12
-9.44
-11.77
-14.17
-16.75
-19.63
-22.87
-26.38
-29.86
-32.78
-34.57
-34.77
-33.23
-30.11
-25.79
-20.73
-15.28
-9.70
-4.18
1.07
5.77
9.64
12.50
14.32
15.29
15.67
15.74
15.69
15.58
15.39
15.02
14.41
13.55
12.48
11.33
10.21
9.14
8.07
6.81
5.13
2.93
0.20
-2.89
-6.07
-9.06
-11.69
-13.94
-15.93
-17.86
-19.96
-22.41
-25.26
-28.41
-31.65
-34.69
-37.19
-38.78
-39.17
-38.11
-35.53
-31.52
-26.39
-20.57
-14.49
-8.49
-2.70
2.88
8.26
13.33
17.84
21.41
23.74
24.82
24.88
24.41
23.86
23.50
23.33
23.14
22.69
21.86
20.70
19.32
17.83
16.22
14.44
12.39
10.03
7.42
4.65
1.80
-1.08
-3.98
-6.86
-9.68
-12.35
-14.86
-17.29
-19.81
-22.64
-25.90
-29.53
-33.20
-36.41
-38.56
-39.18
-37.99
-35.02
-30.51
-24.83
-18.32
-11.30
-4.05
3.14
9.92
15.98
21.03
24.97
27.85
29.86
31.21
32.10
32.63
32.83
32.69
32.19
31.34
30.18
28.75
27.11
25.31
23.38
21.32
19.16
16.88
14.49
11.96
9.26
6.42
3.50
0.58
-2.23
-4.86
-7.34
-9.76
-12.24
-14.92
-17.85
-20.98
-24.14
-27.04
-29.27
-30.45
-30.23
-28.44
-25.13
-20.53
-15.02
-8.95
-2.65
3.63
9.69
15.30
20.27
24.41
27.59
29.80
31.15
31.84
32.12
32.17
32.05
31.68
30.94
29.72
28.02
25.99
23.83
21.70
19.63
17.52
15.23
12.70
10.00
7.32
4.84
2.59
0.42
-1.88
-4.48
-7.41
-10.52
-13.59
-16.48
-19.19
-21.85
-24.64
-27.54
-30.30
-32.49
-33.56
-33.15
-31.13
-27.69
-23.18
-18.03
-12.57
-7.04
-1.62
3.51
8.10
11.95
14.88
16.84
17.91
18.30
18.24
17.93
17.51
17.03
16.48
15.83
14.99
13.92
12.58
10.97
9.19
7.29
5.33
3.27
1.04
-1.47
-4.26
-7.24
-10.17
-12.82
-15.04
-16.85
-18.43
-20.03
-21.86
-24.01
-26.46
-29.15
-31.96
-34.71
-37.06
-38.59
-38.79
-37.31
-34.07
-29.34
-23.64
-17.55
-11.52
-5.77
-0.37
4.69
9.35
13.46
16.81
19.27
20.82
21.64
21.96
22.04
22.00
21.81
21.32
20.40
19.04
17.36
15.56
13.84
12.24
10.71
9.08
7.21
5.03
2.61
0.12
-2.29
-4.49
-6.50
-8.39
-10.29
-12.32
-14.56
-17.03
-19.73
-22.62
-25.63
-28.66
-31.47
-33.72
-34.99
-34.92
-33.32
-30.21
-25.80
-20.42
-14.43
-8.12
-1.76
4.44
10.27
15.51
19.98
23.53
26.12
27.82
28.79
29.26
29.40
29.33
29.07
28.58
27.80
26.69
25.33
23.81
22.23
20.64
19.01
17.24
15.19
12.78
10.05
7.11
4.15
1.33
-1.29
-3.72
-6.05
-8.33
-10.58
-12.82
-15.12
-17.61
-20.44
-23.62
-26.93
-29.89
-31.87
-32.34
-31.05
-28.12
-23.90
-18.86
-13.38
-7.74
-2.07
3.52
8.92
13.98
18.58
22.62
26.02
28.75
30.77
32.07
32.72
32.80
32.43
31.79
30.97
30.05
28.99
27.73
26.18
24.26
22.02
19.56
17.06
14.67
12.44
10.33
8.25
6.12
3.90
1.62
-0.68
-3.00
-5.36
-7.81
-10.40
-13.11
-15.94
-18.86
-21.84
-24.80
-27.55
-29.75
-30.97
-30.84
-29.17
-26.05
-21.84
-17.06
-12.13
-7.35
-2.80
1.52
5.56
9.16
12.10
14.20
15.44
15.99
16.13
16.11
16.06
15.91
15.51
14.72
13.55
12.17
10.80
9.61
8.61
7.66
6.50
4.91
2.83
0.30
-2.47
-5.25
-7.87
-10.26
-12.44
-14.49
-16.48
-18.46
-20.48
-22.59
-24.86
-27.33
-29.94
-32.44
-34.40
-35.38
-35.00
-33.17
-30.10
-26.19
-21.84
-17.30
-12.62
-7.77
-2.82
2.02
6.34
9.77
12.11
13.43
14.02
14.25
14.43
14.69
14.98
15.15
15.04
14.61
13.87
12.94
11.90
10.78
9.56
8.20
6.65
4.91
2.98
0.87
-1.42
-3.86
-6.39
-8.85
-11.10
-13.03
-14.69
-16.26
-18.01
-20.18
-22.83
-25.88
-29.03
-31.87
-33.94
-34.85
-34.34
-32.33
-28.96
-24.55
-19.47
-14.03
-8.41
-2.72
2.96
8.42
13.38
17.50
20.57
22.56
23.67
24.23
24.56
24.86
25.18
25.39
25.38
25.04
24.32
23.26
21.87
20.20
18.30
16.19
13.93
11.57
9.19
6.87
4.67
2.59
0.60
-1.38
-3.47
-5.78
-8.36
-11.18
-14.21
-17.41
-20.69
-23.94
-26.98
-29.47
-31.05
-31.36
-30.19
-27.54
-23.60
-18.70
-13.21
-7.49
-1.78
3.77
9.05
13.94
18.31
21.98
24.82
26.83
28.15
28.99
29.54
29.89
29.99
29.76
29.18
28.32
27.31
26.25
25.11
23.75
22.04
19.90
17.39
14.67
11.93
9.33
6.94
4.77
2.77
0.82
-1.22
-3.50
-6.15
-9.24
-12.77
-16.65
-20.70
-24.59
-27.90
-30.14
-30.93
-30.09
-27.75
-24.25
-20.02
-15.40
-10.59
-5.68
-0.75
4.00
8.30
11.92
14.70
16.67
17.95
18.71
19.06
19.06
18.72
18.07
17.19
16.20
15.20
14.23
13.27
12.26
11.08
9.65
7.89
5.81
3.46
0.97
-1.55
-4.01
-6.40
-8.72
-11.00
-13.31
-15.68
-18.18
-20.88
-23.84
-27.00
-30.20
-33.13
-35.40
-36.65
-36.58
-35.10
-32.28
-28.36
-23.66
-18.50
-13.19
-7.92
-2.88
1.78
5.88
9.23
11.70
13.25
14.03
14.34
14.50
14.75
15.11
15.37
15.22
14.45
13.10
11.44
9.84
8.60
7.71
6.95
5.95
4.47
2.44
0.01
-2.59
-5.19
-7.71
-10.16
-12.54
-14.86
-17.14
-19.47
-22.01
-24.91
-28.16
-31.53
-34.53
-36.58
-37.20
-36.17
-33.52
-29.55
-24.58
-18.91
-12.77
-6.32
0.22
6.57
12.43
17.51
21.63
24.75
26.91
28.24
28.92
29.11
28.98
28.64
28.14
27.44
26.49
25.24
23.71
22.01
20.26
18.53
16.81
14.98
12.85
10.31
7.34
4.09
0.78
-2.37
-5.25
-7.87
-10.35
-12.86
-15.56
-18.54
-21.78
-25.18
-28.49
-31.38
-33.46
-34.36
-33.81
-31.73
-28.23
-23.55
-18.00
-11.93
-5.63
0.67
6.80
12.63
18.03
22.87
26.99
30.26
32.62
34.14
34.98
35.34
35.38
35.17
34.66
33.77
32.41
30.59
28.39
26.01
23.67
21.53
19.65
17.93
16.15
14.12
11.70
8.91
5.91
2.87
-0.04
-2.77
-5.38
-8.00
-10.76
-13.76
-17.04
-20.56
-24.11
-27.41
-30.02
-31.48
-31.39
-29.57
-26.06
-21.16
-15.31
-9.02
-2.72
3.26
8.69
13.40
17.29
20.27
22.33
23.54
24.09
24.23
24.18
24.07
23.89
23.51
22.79
21.63
20.10
18.37
16.64
15.04
13.53
11.95
10.11
7.83
5.11
2.10
-0.96
-3.82
-6.33
-8.51
-10.59
-12.83
-15.48
-18.58
-22.00
-25.47
-28.71
-31.50
-33.69
-35.14
-35.66
-35.05
-33.14
-29.94
-25.64
-20.57
-15.09
-9.54
-4.16
0.85
5.30
8.98
11.76
13.57
14.48
14.64
14.31
13.71
13.02
12.31
11.60
10.84
9.95
8.92
7.72
6.40
5.01
3.58
2.09
0.49
-1.31
-3.32
-5.52
-7.79
-9.99
-12.03
-13.89
-15.67
-17.51
-19.57
-21.94
-24.64
-27.60
-30.66
-33.55
-35.93
-37.38
-37.47
-35.92
-32.68
-27.94
-22.09
-15.60
-8.90
-2.28
4.01
9.82
14.95
19.23
22.58
25.00
26.63
27.67
28.29
28.61
28.66
28.43
27.85
26.91
25.59
23.94
22.04
20.03
18.03
16.14
14.36
12.57
10.61
8.34
5.71
2.83
-0.12
-2.94
-5.51
-7.81
-9.97
-12.19
-14.66
-17.54
-20.87
-24.57
-28.43
-32.08
-35.04
-36.83
-37.06
-35.56
-32.42
-27.97
-22.60
-16.72
-10.59
-4.36
1.84
7.86
13.49
18.48
22.56
25.58
27.51
28.50
28.81
28.75
28.60
28.49
28.40
28.20
27.71
26.82
25.52
23.87
21.96
19.89
17.70
15.44
13.12
10.74
8.31
5.79
3.24
0.69
-1.72
-3.90
-5.82
-7.53
-9.19
-11.00
-13.17
-15.84
-19.02
-22.52
-25.94
-28.76
-30.45
-30.58
-29.00
-25.81
-21.32
-15.96
-10.14
-4.19
1.66
7.30
12.62
17.53
21.86
25.44
28.07
29.66
30.28
30.16
29.65
29.04
28.49
27.94
27.23
26.16
24.65
22.77
20.67
18.52
16.43
14.39
12.36
10.31
8.17
5.92
3.56
1.10
-1.44
-3.96
-6.38
-8.66
-10.80
-12.90
-15.12
-17.60
-20.47
-23.69
-27.08
-30.29
-32.83
-34.17
-33.92
-31.90
-28.26
-23.42
-17.92
-12.28
-6.85
-1.79
2.78
6.76
9.98
12.26
13.53
13.92
13.74
13.38
13.14
13.07
13.04
12.81
12.20
11.21
9.99
8.74
7.60
6.55
5.44
4.12
2.47
0.47
-1.79
-4.16
-6.50
-8.68
-10.62
-12.36
-13.98
-15.66
-17.56
-19.79
-22.35
-25.16
-28.04
-30.77
-33.07
-34.65
-35.20
-34.49
-32.46
-29.19
-24.96
-20.11
-14.97
-9.73
-4.52
0.56
5.37
9.66
13.17
15.73
17.30
18.06
18.29
18.25
18.15
18.06
17.91
17.63
17.17
16.54
15.75
14.83
13.74
12.41
10.81
8.96
6.97
4.92
2.88
0.79
-1.39
-3.71
-6.13
-8.54
-10.80
-12.88
-14.88
-17.00
-19.43
-22.23
-25.27
-28.25
-30.77
-32.45
-33.03
-32.33
-30.33
-27.09
-22.78
-17.65
-11.97
-6.05
-0.19
5.39
10.52
15.06
18.92
22.02
24.32
25.80
26.56
26.74
26.55
26.17
25.74
25.27
24.67
23.83
22.67
21.20
19.52
17.74
15.89
13.95
11.84
9.50
6.97
4.35
1.79
-0.63
-2.91
-5.14
-7.42
-9.84
-12.46
-15.31
-18.39
-21.60
-24.78
-27.58
-29.58
-30.38
-29.72
-27.55
-24.03
-19.45
-14.14
-8.38
-2.40
3.60
9.43
14.89
19.73
23.78
26.91
29.12
30.48
31.18
31.44
31.44
31.29
30.99
30.46
29.61
28.39
26.84
25.10
23.28
21.45
19.58
17.54
15.18
12.40
9.24
5.91
2.67
-0.25
-2.73
-4.83
-6.79
-8.87
-11.29
-14.14
-17.38
-20.87
-24.37
-27.58
-30.16
-31.76
-32.10
-31.05
-28.69
-25.24
-21.02
-16.32
-11.34
-6.22
-1.12
3.77
8.20
11.93
14.79
16.76
17.96
18.57
18.79
18.74
18.48
17.99
17.25
16.23
15.00
13.66
12.32
11.01
9.69
8.26
6.58
4.57
2.24
-0.31
-2.92
-5.45
-7.80
-9.99
-12.11
-14.28
-16.65
-19.31
-22.29
-25.53
-28.88
-32.14
-35.04
-37.27
-38.50
-38.45
-36.95
-33.98
-29.76
-24.57
-18.79
-12.77
-6.84
-1.27
3.70
7.90
11.23
13.70
15.42
16.56
17.32
17.87
18.31
18.66
18.83
18.69
18.07
16.94
15.36
13.59
11.85
10.33
8.99
7.70
6.22
4.40
2.23
-0.20
-2.72
-5.19
-7.56
-9.83
-12.06
-14.32
-16.64
-19.09
-21.74
-24.66
-27.84
-31.19
-34.37
-36.91
-38.25
-37.97
-35.86
-32.06
-26.94
-21.00
-14.68
-8.31
-2.10
3.85
9.43
14.53
19.02
22.79
25.78
27.97
29.45
30.32
30.72
30.76
30.50
29.92
29.00
27.73
26.17
24.44
22.67
20.96
19.30
17.62
15.81
13.73
11.32
8.56
5.54
2.36
-0.80
-3.85
-6.69
-9.36
-11.94
-14.56
-17.35
-20.35
-23.54
-26.78
-29.84
-32.37
-34.00
-34.34
-33.15
-30.34
-26.02
-20.49
-14.13
-7.31
-0.37
6.45
12.91
18.82
24.00
28.32
31.76
34.37
36.29
37.64
38.50
38.84
38.60
37.74
36.33
34.55
32.62
30.75
28.98
27.21
25.23
22.83
19.98
16.80
13.52
10.36
7.43
4.66
1.93
-0.87
-3.76
-6.68
-9.55
-12.37
-15.24
-18.26
-21.54
-25.07
-28.70
-32.12
-34.96
-36.81
-37.31
-36.27
-33.63
-29.61
-24.53
-18.79
-12.76
-6.70
-0.84
4.64
9.56
13.79
17.21
19.80
21.56
22.56
22.87
22.59
21.84
20.77
19.55
18.36
17.27
16.29
15.28
14.06
12.45
10.43
8.05
5.51
2.95
0.44
-2.07
-4.63
-7.30
-9.99
-12.57
-14.91
-17.00
-18.96
-21.01
-23.35
-26.09
-29.23
-32.57
-35.80
-38.51
-40.27
-40.69
-39.58
-36.95
-32.99
-28.04
-22.43
-16.44
-10.27
-4.09
1.90
7.44
12.25
16.07
18.75
20.37
21.16
21.43
21.48
21.47
21.41
21.19
20.70
19.84
18.64
17.15
15.48
13.68
11.79
9.88
7.99
6.15
4.34
2.46
0.40
-1.90
-4.39
-6.94
-9.40
-11.68
-13.79
-15.83
-17.94
-20.19
-22.68
-25.48
-28.63
-32.10
-35.65
-38.81
-40.93
-41.40
-39.88
-36.41
-31.41
-25.44
-19.04
-12.52
-5.97
0.62
7.18
13.54
19.38
24.37
28.32
31.15
32.96
33.94
34.30
34.20
33.76
33.04
32.05
30.80
29.34
27.75
26.14
24.51
22.79
20.80
18.36
15.42
12.19
8.99
6.17
3.89
2.01
0.17
-1.99
-4.63
-7.65
-10.78
-13.76
-16.53
-19.22
-22.06
-25.16
-28.45
-31.58
-34.07
-35.45
-35.40
-33.79
-30.68
-26.27
-20.83
-14.61
-7.84
-0.75
6.45
13.46
19.92
25.52
30.01
33.33
35.59
37.01
37.84
38.26
38.36
38.17
37.70
37.00
36.12
35.09
33.88
32.38
30.48
28.12
25.37
22.38
19.42
16.65
14.16
11.90
9.75
7.54
5.20
2.72
0.13
-2.51
-5.20
-7.99
-10.91
-13.98
-17.14
-20.33
-23.50
-26.60
-29.55
-32.17
-34.13
-35.07
-34.64
-32.66
-29.22
-24.63
-19.31
-13.65
-7.99
-2.54
2.50
6.94
10.55
13.12
14.59
15.08
14.87
14.34
13.81
13.39
13.02
12.54
11.79
10.76
9.55
8.34
7.23
6.20
5.12
3.86
2.35
0.61
-1.24
-3.13
-5.04
-6.99
-8.98
-11.00
-12.96
-14.77
-16.39
-17.86
-19.32
-20.96
-22.95
-25.32
-27.90
-30.30
-32.01
-32.52
-31.52
-28.97
-25.10
-20.29
-15.00
-9.59
-4.30
0.67
5.12
8.86
11.74
13.67
14.71
15.00
14.75
14.12
13.29
12.37
11.50
10.76
10.18
9.67
9.02
8.01
6.51
4.55
2.32
0.10
-1.94
-3.75
-5.44
-7.19
-9.14
-11.33
-13.64
-15.90
-18.00
-19.89
-21.71
-23.66
-26.03
-28.97
-32.49
-36.31
-39.93
-42.71
-44.06
-43.57
-41.10
-36.82
-31.10
-24.41
-17.19
-9.79
-2.45
4.71
11.57
17.98
23.69
28.43
31.98
34.30
35.53
35.94
35.86
35.48
34.86
33.96
32.74
31.25
29.62
27.94
26.22
24.30
21.98
19.15
15.88
12.40
8.99
5.81
2.86
0.04
-2.79
-5.69
-8.63
-11.54
-14.44
-17.47
-20.82
-24.63
-28.85
-33.19
-37.20
-40.36
-42.25
-42.61
-41.36
-38.56
-34.37
-28.96
-22.56
-15.43
-7.85
-0.17
7.28
14.19
20.28
25.41
29.48
32.47
34.43
35.49
35.82
35.61
35.04
34.23
33.19
31.85
30.15
28.06
25.71
23.27
20.93
18.77
16.75
14.70
12.45
9.90
7.10
4.19
1.30
-1.43
-3.99
-6.40
-8.71
-10.95
-13.20
-15.53
-18.09
-21.03
-24.44
-28.24
-32.11
-35.52
-37.85
-38.53
-37.28
-34.11
-29.32
-23.38
-16.75
-9.76
-2.67
4.34
11.06
17.24
22.67
27.18
30.68
33.18
34.78
35.64
35.95
35.97
35.91
35.87
35.79
35.50
34.79
33.53
31.72
29.51
27.12
24.70
22.37
20.14
18.01
15.94
13.87
11.74
9.48
7.04
4.41
1.63
-1.23
-4.12
-7.03
-10.02
-13.11
-16.34
-19.65
-22.95
-26.02
-28.55
-30.17
-30.53
-29.42
-26.81
-22.95
-18.19
-12.94
-7.52
-2.13
3.09
8.03
12.51
16.35
19.34
21.36
22.43
22.73
22.52
22.08
21.59
21.09
20.49
19.65
18.49
17.06
15.49
13.98
12.61
11.40
10.23
9.01
7.64
6.09
4.35
2.41
0.28
-1.99
-4.32
-6.63
-8.89
-11.13
-13.41
-15.84
-18.48
-21.33
-24.37
-27.50
-30.53
-33.12
-34.79
-35.07
-33.66
-30.56
-26.11
-20.88
-15.47
-10.35
-5.72
-1.65
1.91
4.95
7.43
9.31
10.58
11.30
11.57
11.53
11.24
10.75
10.08
9.28
8.41
7.53
6.72
5.99
5.34
4.68
3.95
3.07
1.97
0.58
-1.12
-3.10
-5.26
-7.45
-9.55
-11.46
-13.18
-14.79
-16.43
-18.27
-20.40
-22.93
-25.80
-28.88
-31.83
-34.20
-35.46
-35.22
-33.30
-29.86
-25.28
-20.04
-14.58
-9.13
-3.82
1.38
6.43
11.21
15.48
18.95
21.40
22.77
23.22
23.05
22.61
22.15
21.70
21.18
20.48
19.53
18.38
17.15
15.95
14.81
13.67
12.42
10.95
9.21
7.18
4.89
2.38
-0.23
-2.85
-5.34
-7.64
-9.77
-11.76
-13.73
-15.72
-17.84
-20.17
-22.75
-25.52
-28.22
-30.36
-31.40
-30.90
-28.74
-25.16
-20.67
-15.78
-10.83
-5.91
-0.97
4.06
9.06
13.77
17.85
21.07
23.35
24.83
25.71
26.16
26.31
26.22
25.93
25.52
25.05
24.60
24.15
23.65
23.01
22.19
21.15
19.92
18.52
16.98
15.31
13.50
11.56
9.48
7.29
5.06
2.86
0.80
-1.08
-2.80
-4.48
-6.29
-8.39
-10.86
-13.63
-16.50
-19.20
-21.38
-22.73
-22.97
-21.92
-19.58
-16.12
-11.93
-7.47
-3.14
0.76
4.17
7.12
9.68
11.84
13.52
14.59
15.00
14.85
14.35
13.77
13.26
12.89
12.53
12.03
11.24
10.10
8.67
7.06
5.46
3.98
2.66
1.45
0.23
-1.15
-2.78
-4.63
-6.61
-8.61
-10.52
-12.31
-14.02
-15.74
-17.53
-19.48
-21.66
-24.07
-26.61
-29.06
-31.05
-32.13
-31.95
-30.35
-27.46
-23.59
-19.19
-14.64
-10.16
-5.89
-1.86
1.85
5.10
7.73
9.62
10.74
11.25
11.39
11.40
11.46
11.58
11.66
11.56
11.21
10.60
9.81
8.91
7.92
6.87
5.74
4.57
3.39
2.18
0.84
-0.72
-2.55
-4.60
-6.73
-8.82
-10.81
-12.74
-14.71
-16.76
-18.94
-21.22
-23.61
-26.09
-28.56
-30.77
-32.35
-32.93
-32.23
-30.19
-26.91
-22.66
-17.70
-12.32
-6.77
-1.33
3.74
8.22
11.98
15.01
17.39
19.22
20.58
21.52
22.08
22.31
22.29
22.12
21.90
21.65
21.31
20.75
19.87
18.65
17.20
15.68
14.21
12.80
11.35
9.67
7.66
5.30
2.72
0.07
-2.47
-4.80
-6.86
-8.70
-10.38
-12.02
-13.80
-15.88
-18.40
-21.33
-24.45
-27.32
-29.40
-30.14
-29.20
-26.55
-22.49
-17.48
-12.00
-6.39
-0.82
4.62
9.87
14.80
19.18
22.81
25.52
27.29
28.25
28.66
28.80
28.93
29.19
29.59
30.00
30.23
30.07
29.36
28.06
26.22
24.01
21.61
19.20
16.87
14.64
12.44
10.17
7.79
5.28
2.71
0.15
-2.34
-4.74
-7.06
-9.33
-11.60
-13.97
-16.53
-19.32
-22.22
-24.95
-27.05
-28.05
-27.57
-25.44
-21.82
-17.10
-11.83
-6.57
-1.73
2.50
6.09
9.09
11.55
13.47
14.79
15.52
15.75
15.63
15.37
15.07
14.70
14.15
13.28
12.01
10.42
8.68
6.98
5.43
4.04
2.66
1.13
-0.71
-2.86
-5.22
-7.59
-9.79
-11.68
-13.31
-14.80
-16.33
-18.11
-20.25
-22.81
-25.74
-28.85
-31.81
-34.20
-35.58
-35.65
-34.30
-31.65
-27.99
-23.59
-18.71
-13.50
-8.11
-2.75
2.34
6.84
10.50
13.18
14.87
15.74
16.02
15.98
15.89
15.92
16.11
16.35
16.41
16.05
15.15
13.68
11.82
9.80
7.85
6.08
4.46
2.89
1.18
-0.76
-2.96
-5.33
-7.73
-10.03
-12.19
-14.25
-16.30
-18.48
-20.91
-23.65
-26.66
-29.77
-32.66
-34.91
-36.04
-35.71
-33.76
-30.28
-25.58
-20.05
-14.06
-7.89
-1.70
4.36
10.12
15.35
19.81
23.27
25.65
26.98
27.48
27.39
26.98
26.40
25.76
25.07
24.31
23.45
22.48
21.38
20.13
18.70
17.04
15.13
12.96
10.58
8.06
5.46
2.85
0.27
-2.27
-4.77
-7.27
-9.80
-12.38
-15.07
-17.89
-20.87
-23.97
-27.07
-29.86
-31.93
-32.83
-32.20
-29.90
-26.09
-21.14
-15.48
-9.51
-3.47
2.53
8.37
13.91
18.95
23.30
26.79
29.40
31.22
32.41
33.12
33.49
33.56
33.33
32.74
31.79
30.53
29.06
27.50
25.94
24.36
22.71
20.89
18.83
16.53
13.97
11.21
8.31
5.37
2.51
-0.14
-2.55
-4.77
-6.98
-9.42
-12.27
-15.58
-19.23
-22.96
-26.40
-29.17
-30.92
-31.40
-30.45
-28.07
-24.43
-19.76
-14.39
-8.64
-2.84
2.72
7.75
12.00
15.26
17.45
18.63
19.00
18.88
18.54
18.18
17.88
17.55
17.11
16.46
15.60
14.54
13.32
11.96
10.45
8.80
7.03
5.20
3.31
1.38
-0.63
-2.76
-5.00
-7.31
-9.64
-11.98
-14.36
-16.84
-19.45
-22.23
-25.17
-28.20
-31.21
-33.94
-36.05
-37.14
-36.84
-34.96
-31.53
-26.79
-21.12
-14.93
-8.63
-2.56
2.94
7.57
11.11
13.47
14.73
15.14
14.99
14.60
14.21
13.93
13.77
13.60
13.30
12.73
11.82
10.58
9.12
7.53
5.90
4.29
2.68
1.03
-0.69
-2.50
-4.40
-6.37
-8.41
-10.47
-12.54
-14.59
-16.63
-18.69
-20.86
-23.19
-25.74
-28.48
-31.29
-33.94
-36.05
-37.18
-36.91
-34.99
-31.39
-26.37
-20.36
-13.80
-7.05
-0.32
6.24
12.51
18.28
23.31
27.36
30.30
32.12
32.96
33.04
32.60
31.86
30.96
29.94
28.75
27.30
25.55
23.59
21.53
19.52
17.61
15.70
13.65
11.35
8.83
6.22
3.70
1.41
-0.67
-2.61
-4.53
-6.54
-8.66
-10.93
-13.38
-16.03
-18.87
-21.87
-24.91
-27.89
-30.62
-32.87
-34.32
-34.58
-33.32
-30.39
-25.88
-20.09
-13.48
-6.47
0.63
7.56
14.15
20.14
25.27
29.26
32.01
33.57
34.24
34.41
34.42
34.46
34.50
34.38
33.89
32.93
31.53
29.80
27.89
25.89
23.82
21.71
19.57
17.44
15.34
13.26
11.14
8.93
6.62
4.24
1.88
-0.38
-2.53
-4.60
-6.71
-9.00
-11.63
-14.68
-18.15
-21.91
-25.66
-28.99
-31.42
-32.52
-32.03
-29.93
-26.43
-21.94
-16.92
-11.70
-6.49
-1.34
3.70
8.52
12.82
16.30
18.69
19.98
20.34
20.13
19.69
19.27
18.97
18.80
18.72
18.69
18.61
18.32
17.69
16.64
15.19
13.44
11.52
9.48
7.33
5.02
2.54
-0.05
-2.62
-5.06
-7.31
-9.38
-11.35
-13.28
-15.23
-17.24
-19.37
-21.72
-24.38
-27.36
-30.54
-33.59
-36.04
-37.37
-37.16
-35.26
-31.80
-27.17
-21.88
-16.37
-10.99
-5.91
-1.29
2.77
6.17
8.89
10.99
12.56
13.71
14.48
14.87
14.87
14.52
13.99
13.44
13.01
12.69
12.37
11.95
11.33
10.51
9.51
8.35
7.03
5.57
3.95
2.22
0.40
-1.51
-3.51
-5.62
-7.83
-10.02
-12.10
-13.99
-15.71
-17.41
-19.31
-21.63
-24.47
-27.70
-30.94
-33.63
-35.18
-35.12
-33.25
-29.70
-24.84
-19.18
-13.16
-7.10
-1.22
4.34
9.48
14.05
17.94
21.05
23.37
24.97
25.94
26.43
26.54
26.34
25.88
25.18
24.31
23.33
22.31
21.26
20.18
18.98
17.62
16.05
14.28
12.37
10.41
8.44
6.48
4.49
2.46
0.39
-1.71
-3.79
-5.80
-7.74
-9.67
-11.66
-13.81
-16.19
-18.86
-21.82
-24.98
-28.11
-30.87
-32.81
-33.49
-32.63
-30.19
-26.41
-21.71
-16.52
-11.15
-5.79
-0.49
4.71
9.69
14.22
18.06
21.05
23.17
24.60
25.62
26.49
27.33
28.09
28.57
28.56
27.97
26.91
25.58
24.21
22.93
21.71
20.42
18.96
17.30
15.55
13.83
12.22
10.69
9.13
7.40
5.42
3.20
0.83
-1.58
-3.93
-6.22
-8.47
-10.77
-13.17
-15.70
-18.35
-21.08
-23.78
-26.25
-28.19
-29.23
-29.05
-27.44
-24.40
-20.16
-15.14
-9.80
-4.56
0.27
4.54
8.17
11.12
13.35
14.87
15.76
16.19
16.38
16.48
16.53
16.45
16.12
15.46
14.55
13.51
12.48
11.50
10.50
9.37
7.99
6.31
4.37
2.24
-0.02
-2.34
-4.69
-7.03
-9.33
-11.56
-13.70
-15.72
-17.61
-19.40
-21.17
-23.06
-25.23
-27.72
-30.39
-32.88
-34.67
-35.29
-34.43
-32.02
-28.31
-23.65
-18.50
-13.21
-8.06
-3.24
1.10
4.84
7.89
10.27
12.09
13.49
14.59
15.43
15.96
16.13
15.90
15.28
14.37
13.28
12.13
11.01
9.99
9.10
8.29
7.48
6.50
5.15
3.34
1.07
-1.50
-4.13
-6.62
-8.86
-10.85
-12.70
-14.52
-16.42
-18.48
-20.82
-23.52
-26.60
-29.92
-33.16
-35.82
-37.39
-37.44
-35.84
-32.72
-28.43
-23.39
-17.96
-12.36
-6.68
-1.02
4.52
9.77
14.50
18.54
21.76
24.16
25.80
26.79
27.29
27.47
27.43
27.28
27.01
26.56
25.85
24.84
23.52
21.96
20.22
18.38
16.45
14.41
12.21
9.82
7.20
4.42
1.58
-1.14
-3.63
-5.86
-7.95
-10.13
-12.61
-15.54
-18.90
-22.56
-26.29
-29.79
-32.74
-34.76
-35.48
-34.64
-32.17
-28.27
-23.34
-17.79
-11.94
-5.96
0.10
6.18
12.09
17.56
22.28
25.98
28.62
30.32
31.34
31.98
32.47
32.89
33.20
33.25
32.90
32.07
30.78
29.10
27.17
25.09
22.96
20.81
18.65
16.47
14.23
11.86
9.33
6.61
3.73
0.74
-2.27
-5.22
-8.09
-10.91
-13.77
-16.82
-20.14
-23.69
-27.27
-30.48
-32.86
-33.94
-33.42
-31.20
-27.40
-22.33
-16.40
-10.03
-3.60
2.59
8.29
13.34
17.60
20.94
23.28
24.61
25.02
24.75
24.11
23.37
22.72
22.14
21.47
20.53
19.18
17.45
15.54
13.60
11.73
9.87
7.87
5.63
3.12
0.48
-2.11
-4.52
-6.73
-8.83
-11.00
-13.35
-15.96
-18.84
-22.02
-25.48
-29.14
-32.77
-36.02
-38.44
-39.63
-39.31
-37.43
-34.13
-29.64
-24.27
-18.28
-11.95
-5.59
0.46
5.90
10.42
13.87
16.20
17.57
18.24
18.52
18.64
18.73
18.76
18.62
18.19
17.45
16.41
15.15
13.74
12.24
10.68
9.10
7.51
5.86
4.03
1.89
-0.62
-3.42
-6.32
-9.13
-11.70
-14.04
-16.29
-18.65
-21.27
-24.23
-27.52
-31.01
-34.48
-37.55
-39.76
-40.64
-39.83
-37.28
-33.20
-28.00
-22.12
-15.87
-9.41
-2.84
3.75
10.15
16.05
21.15
25.22
28.21
30.21
31.35
31.83
31.81
31.44
30.85
30.14
29.38
28.53
27.47
26.07
24.22
21.90
19.21
16.34
13.50
10.82
8.30
5.87
3.38
0.78
-1.93
-4.63
-7.26
-9.76
-12.23
-14.81
-17.61
-20.69
-24.01
-27.50
-30.96
-34.15
-36.72
-38.24
-38.30
-36.61
-33.14
-28.10
-21.92
-15.08
-8.01
-1.02
5.70
12.00
17.73
22.73
26.84
29.99
32.22
33.66
34.48
34.89
35.06
35.05
34.87
34.41
33.52
32.10
30.13
27.73
25.13
22.56
20.18
18.00
15.93
13.83
11.59
9.15
6.56
3.88
1.24
-1.26
-3.54
-5.62
-7.61
-9.69
-12.03
-14.73
-17.79
-21.12
-24.56
-27.84
-30.58
-32.31
-32.58
-31.10
-27.83
-23.08
-17.31
-11.06
-4.72
1.45
7.33
12.80
17.74
21.95
25.28
27.61
28.93
29.38
29.17
28.58
27.89
27.26
26.69
26.06
25.13
23.76
21.92
19.74
17.47
15.32
13.42
11.70
10.02
8.17
6.05
3.63
1.02
-1.64
-4.22
-6.61
-8.80
-10.82
-12.75
-14.76
-17.04
-19.78
-23.07
-26.83
-30.73
-34.27
-36.86
-38.04
-37.58
-35.53
-32.17
-27.86
-22.94
-17.69
-12.29
-6.96
-1.90
2.65
6.48
9.44
11.50
12.71
13.23
13.28
13.15
13.06
13.15
13.39
13.59
13.49
12.88
11.73
10.18
8.49
6.88
5.43
4.06
2.57
0.80
-1.32
-3.71
-6.24
-8.73
-11.02
-13.02
-14.74
-16.23
-17.67
-19.29
-21.30
-23.87
-26.99
-30.46
-33.88
-36.70
-38.34
-38.40
-36.72
-33.43
-28.91
-23.62
-17.96
-12.21
-6.52
-0.92
4.58
9.88
14.84
19.20
22.72
25.21
26.61
27.06
26.81
26.20
25.49
24.86
24.29
23.73
23.05
22.17
21.05
19.69
18.07
16.19
14.07
11.70
9.16
6.55
4.01
1.65
-0.49
-2.47
-4.40
-6.40
-8.52
-10.76
-13.05
-15.37
-17.78
-20.37
-23.26
-26.46
-29.78
-32.86
-35.18
-36.27
-35.79
-33.68
-30.15
-25.57
-20.33
-14.77
-9.07
-3.29
2.49
8.15
13.47
18.21
22.19
25.34
27.74
29.51
30.79
31.67
32.17
32.26
31.93
31.22
30.20
28.97
27.61
26.15
24.59
22.85
20.91
18.78
16.51
14.22
12.02
9.98
8.11
6.33
4.56
2.68
0.64
-1.57
-3.89
-6.26
-8.61
-10.92
-13.26
-15.76
-18.50
-21.46
-24.42
-26.99
-28.69
-29.14
-28.11
-25.66
-21.99
-17.42
-12.24
-6.73
-1.15
4.27
9.29
13.75
17.50
20.49
22.71
24.22
25.12
25.55
25.64
25.48
25.08
24.38
23.35
22.03
20.58
19.17
17.92
16.80
15.63
14.22
12.47
10.43
8.25
6.05
3.88
1.66
-0.74
-3.34
-6.09
-8.79
-11.28
-13.47
-15.44
-17.36
-19.42
-21.70
-24.18
-26.73
-29.16
-31.25
-32.74
-33.32
-32.68
-30.60
-27.06
-22.30
-16.81
-11.13
-5.75
-0.95
3.14
6.54
9.20
11.09
12.19
12.60
12.54
12.29
12.09
12.02
11.99
11.87
11.49
10.78
9.75
8.45
6.95
5.35
3.69
2.06
0.50
-0.98
-2.43
-3.93
-5.55
-7.32
-9.19
-11.03
-12.74
-14.28
-15.76
-17.32
-19.11
-21.19
-23.51
-25.96
-28.42
-30.73
-32.74
-34.21
-34.83
-34.31
-32.45
-29.28
-25.02
-19.99
-14.53
-8.93
-3.40
1.87
6.68
10.86
14.30
16.96
18.95
20.39
21.41
22.12
22.56
22.77
22.81
22.67
22.35
21.80
20.97
19.85
18.50
17.01
15.48
14.00
12.55
11.04
9.32
7.29
4.91
2.25
-0.56
-3.35
-6.00
-8.48
-10.79
-12.99
-15.14
-17.32
-19.65
-22.22
-25.09
-28.15
-31.13
-33.58
-35.00
-35.03
-33.50
-30.51
-26.38
-21.45
-16.03
-10.38
-4.69
0.85
6.05
10.77
14.92
18.46
21.41
23.77
25.56
26.78
27.49
27.76
27.71
27.43
26.97
26.35
25.56
24.61
23.49
22.24
20.83
19.23
17.43
15.40
13.18
10.83
8.42
6.04
3.74
1.55
-0.52
-2.50
-4.45
-6.40
-8.44
-10.65
-13.14
-15.96
-19.08
-22.33
-25.38
-27.77
-29.07
-28.96
-27.36
-24.40
-20.40
-15.64
-10.39
-4.85
0.79
6.29
11.35
15.72
19.22
21.85
23.70
24.96
25.79
26.31
26.59
26.68
26.59
26.33
25.88
25.19
24.21
22.89
21.24
19.29
17.17
14.98
12.81
10.68
8.57
6.40
4.12
1.72
-0.75
-3.24
-5.71
-8.14
-10.53
-12.88
-15.19
-17.50
-19.92
-22.57
-25.47
-28.51
-31.33
-33.42
-34.29
-33.58
-31.25
-27.57
-23.01
-18.05
-13.08
-8.26
-3.59
0.92
5.18
8.92
11.84
13.71
14.55
14.60
14.23
13.80
13.51
13.34
13.18
12.88
12.34
11.58
10.63
9.54
8.30
6.91
5.30
3.46
1.40
-0.81
-3.07
-5.28
-7.41
-9.51
-11.67
-13.95
-16.34
-18.76
-21.11
-23.32
-25.48
-27.75
-30.25
-32.98
-35.67
-37.84
-38.94
-38.51
-36.33
-32.48
-27.24
-21.06
-14.39
-7.63
-1.12
4.87
10.14
14.56
18.11
20.84
22.86
24.33
25.37
26.09
26.54
26.73
26.65
26.28
25.60
24.62
23.36
21.85
20.12
18.22
16.19
14.07
11.88
9.62
7.27
4.76
2.10
-0.70
-3.56
-6.37
-9.06
-11.64
-14.18
-16.80
-19.66
-22.88
-26.51
-30.50
-34.57
-38.26
-40.98
-42.14
-41.32
-38.43
-33.75
-27.77
-21.11
-14.28
-7.62
-1.27
4.71
10.28
15.38
19.87
23.62
26.52
28.55
29.81
30.45
30.70
30.70
30.56
30.25
29.68
28.77
27.44
25.72
23.69
21.45
19.14
16.82
14.53
12.30
10.12
7.99
5.88
3.67
1.26
-1.44
-4.42
-7.57
-10.72
-13.72
-16.52
-19.17
-21.85
-24.75
-27.97
-31.46
-34.93
-37.88
-39.72
-39.85
-37.92
-33.94
-28.27
-21.52
-14.32
-7.16
-0.32
6.12
12.09
17.49
22.18
26.04
29.02
31.24
32.88
34.14
35.07
35.65
35.75
35.31
34.35
32.98
31.36
29.63
27.81
25.87
23.74
21.40
18.90
16.34
13.78
11.21
8.56
5.72
2.65
-0.61
-3.89
-7.05
-9.94
-12.60
-15.15
-17.83
-20.88
-24.38
-28.25
-32.17
-35.65
-38.14
-39.15
-38.36
-35.72
-31.37
-25.70
-19.15
-12.16
-5.16
1.54
7.70
13.13
17.68
21.27
23.86
25.52
26.42
26.78
26.80
26.60
26.19
25.55
24.64
23.47
22.11
20.60
18.96
17.17
15.18
12.90
10.32
7.45
4.40
1.29
-1.73
-4.56
-7.19
-9.70
-12.23
-14.91
-17.84
-21.03
-24.45
-28.08
-31.83
-35.54
-38.88
-41.42
-42.71
-42.41
-40.40
-36.80
-31.86
-25.95
-19.44
-12.68
-6.02
0.26
5.90
10.73
14.64
17.54
19.45
20.45
20.75
20.64
20.36
20.07
19.77
19.32
18.60
17.57
16.29
14.88
13.45
12.02
10.54
8.95
7.16
5.13
2.82
0.19
-2.70
-5.73
-8.69
-11.38
-13.69
-15.71
-17.66
-19.86
-22.51
-25.66
-29.20
-32.87
-36.32
-39.14
-40.87
-41.09
-39.46
-35.90
-30.63
-24.12
-16.96
-9.64
-2.47
4.40
10.92
17.00
22.44
26.97
30.37
32.61
33.83
34.34
34.44
34.32
34.03
33.50
32.67
31.51
30.08
28.47
26.72
24.84
22.77
20.49
17.98
15.34
12.67
10.11
7.71
5.49
3.38
1.27
-0.93
-3.29
-5.78
-8.40
-11.10
-13.90
-16.87
-20.04
-23.35
-26.56
-29.23
-30.77
-30.68
-28.68
-24.83
-19.54
-13.40
-6.99
-0.68
5.39
11.24
16.83
22.00
26.44
29.87
32.13
33.33
33.73
33.62
33.23
32.62
31.78
30.67
29.30
27.78
26.20
24.62
23.00
21.23
19.24
16.97
14.47
11.83
9.17
6.57
4.09
1.71
-0.62
-2.99
-5.46
-8.04
-10.74
-13.56
-16.49
-19.57
-22.78
-26.10
-29.38
-32.38
-34.76
-36.16
-36.29
-35.02
-32.38
-28.57
-23.86
-18.53
-12.83
-6.96
-1.15
4.33
9.11
12.90
15.51
16.94
17.40
17.18
16.60
15.89
15.15
14.41
13.63
12.74
11.71
10.50
9.10
7.50
5.72
3.78
1.70
-0.46
-2.66
-4.85
-7.04
-9.23
-11.39
-13.49
-15.49
-17.36
-19.14
-20.93
-22.86
-25.05
-27.52
-30.20
-32.90
-35.37
-37.28
-38.30
-38.13
-36.56
-33.55
-29.21
-23.79
-17.66
-11.18
-4.68
1.61
7.49
12.87
17.62
21.58
24.60
26.60
27.62
27.83
27.50
26.89
26.17
25.36
24.41
23.27
21.92
20.38
18.71
16.90
14.96
12.91
10.78
8.65
6.55
4.45
2.26
-0.11
-2.66
-5.33
-8.00
-10.55
-12.94
-15.19
-17.36
-19.52
-21.73
-24.07
-26.62
-29.44
-32.41
-35.21
-37.27
-37.99
-36.89
-33.89
-29.26
-23.57
-17.41
-11.16
-4.96
1.24
7.45
13.62
19.45
24.60
28.75
31.75
33.59
34.41
34.39
33.75
32.66
31.32
29.89
28.49
27.17
25.88
24.50
22.88
20.89
18.49
15.75
12.85
9.98
7.35
5.00
2.90
0.89
-1.20
-3.49
-5.99
-8.57
-11.07
-13.37
-15.48
-17.53
-19.69
-22.10
-24.76
-27.50
-30.08
-32.18
-33.55
-33.95
-33.21
-31.20
-27.87
-23.30
-17.75
-11.57
-5.13
1.23
7.25
12.80
17.77
22.11
25.80
28.82
31.19
32.91
34.01
34.52
34.55
34.23
33.73
33.17
32.61
31.98
31.18
30.07
28.59
26.75
24.62
22.33
20.03
17.90
16.01
14.35
12.79
11.09
9.07
6.63
3.88
1.02
-1.73
-4.26
-6.60
-8.88
-11.26
-13.86
-16.68
-19.58
-22.33
-24.58
-25.97
-26.20
-25.08
-22.62
-19.03
-14.67
-9.93
-5.17
-0.66
3.46
7.12
10.27
12.83
14.74
15.95
16.48
16.43
15.97
15.33
14.65
14.00
13.32
12.53
11.56
10.42
9.17
7.89
6.58
5.19
3.61
1.76
-0.37
-2.69
-5.05
-7.33
-9.47
-11.48
-13.46
-15.48
-17.61
-19.80
-21.96
-24.04
-25.97
-27.81
-29.56
-31.17
-32.45
-33.07
-32.69
-31.07
-28.18
-24.20
-19.47
-14.36
-9.18
-4.16
0.56
4.84
8.54
11.50
13.60
14.80
15.21
15.02
14.49
13.90
13.37
12.93
12.47
11.83
10.91
9.69
8.27
6.79
5.37
4.05
2.79
1.45
-0.09
-1.95
-4.14
-6.57
-9.09
-11.54
-13.79
-15.82
-17.69
-19.56
-21.60
-23.96
-26.66
-29.57
-32.42
-34.80
-36.29
-36.53
-35.33
-32.67
-28.73
-23.82
-18.30
-12.50
-6.71
-1.11
4.11
8.80
12.78
15.87
17.94
19.03
19.30
19.03
18.51
17.99
17.56
17.22
16.86
16.37
15.65
14.69
13.54
12.27
10.92
9.49
7.92
6.13
4.07
1.77
-0.72
-3.34
-6.04
-8.83
-11.65
-14.40
-16.99
-19.38
-21.67
-24.03
-26.64
-29.50
-32.34
-34.73
-36.11
-36.08
-34.46
-31.28
-26.76
-21.22
-14.99
-8.43
-1.89
4.35
10.04
15.01
19.18
22.50
24.96
26.59
27.47
27.74
27.59
27.17
26.61
25.90
24.99
23.80
22.31
20.57
18.71
16.88
15.15
13.45
11.67
9.62
7.22
4.51
1.63
-1.27
-4.05
-6.70
-9.24
-11.70
-14.10
-16.41
-18.69
-21.06
-23.71
-26.72
-29.93
-32.90
-35.00
-35.64
-34.47
-31.54
-27.21
-21.98
-16.26
-10.30
-4.22
1.90
7.88
13.45
18.31
22.21
25.07
26.92
27.93
28.33
28.28
27.91
27.25
26.29
25.03
23.52
21.85
20.14
18.48
16.89
15.30
13.63
11.77
9.69
7.37
4.83
2.08
-0.84
-3.84
-6.83
-9.67
-12.27
-14.60
-16.71
-18.77
-20.98
-23.51
-26.40
-29.53
-32.55
-34.99
-36.33
-36.15
-34.27
-30.79
-26.06
-20.54
-14.64
-8.66
-2.74
3.04
8.55
13.62
18.03
21.56
24.15
25.84
26.83
27.32
27.50
27.45
27.23
26.82
26.27
25.58
24.75
23.76
22.52
20.95
19.04
16.88
14.64
12.46
10.40
8.45
6.50
4.49
2.42
0.33
-1.72
-3.76
-5.86
-8.08
-10.44
-12.91
-15.41
-17.87
-20.28
-22.53
-24.39
-25.49
-25.35
-23.65
-20.34
-15.73
-10.35
-4.73
0.72
5.83
10.56
14.85
18.58
21.51
23.49
24.48
24.69
24.48
24.15
23.87
23.60
23.18
22.43
21.31
19.85
18.22
16.51
14.76
12.94
11.00
8.91
6.70
4.45
2.25
0.13
-1.88
-3.77
-5.57
-7.33
-9.15
-11.15
-13.46
-16.17
-19.26
-22.60
-25.95
-28.97
-31.30
-32.61
-32.64
-31.27
-28.57
-24.74
-20.10
-15.08
-10.06
-5.36
-1.17
2.40
5.34
7.63
9.26
10.22
10.58
10.51
10.22
9.90
9.61
9.29
8.78
7.98
6.90
5.71
4.62
3.74
3.01
2.22
1.09
-0.51
-2.56
-4.85
-7.14
-9.24
-11.11
-12.82
-14.48
-16.12
-17.77
-19.45
-21.27
-23.37
-25.87
-28.66
-31.36
-33.35
-34.04
-33.00
-30.19
-25.90
-20.61
-14.84
-8.96
-3.21
2.25
7.26
11.67
15.34
18.23
20.38
21.95
23.11
23.97
24.59
24.98
25.11
24.94
24.45
23.65
22.56
21.20
19.63
17.92
16.13
14.33
12.49
10.56
8.46
6.14
3.61
0.96
-1.71
-4.28
-6.75
-9.15
-11.60
-14.22
-17.09
-20.24
-23.63
-27.09
-30.34
-32.94
-34.41
-34.31
-32.43
-28.89
-24.08
-18.55
-12.76
-7.02
-1.42
4.04
9.29
14.16
18.41
21.82
24.28
25.84
26.68
27.00
26.93
26.58
25.99
25.21
24.28
23.24
22.12
20.94
19.70
18.44
17.12
15.74
14.25
12.62
10.88
9.03
7.13
5.16
3.15
1.06
-1.10
-3.32
-5.62
-8.02
-10.57
-13.32
-16.28
-19.38
-22.37
-24.89
-26.48
-26.73
-25.41
-22.54
-18.40
-13.42
-8.03
-2.56
2.78
7.88
12.58
16.73
20.11
22.59
24.18
25.01
25.27
25.13
24.72
24.08
23.25
22.27
21.18
19.99
18.67
17.18
15.49
13.64
11.69
9.70
7.68
5.59
3.38
1.06
-1.28
-3.51
-5.55
-7.42
-9.28
-11.34
-13.79
-16.73
-20.07
-23.59
-26.98
-29.95
-32.21
-33.55
-33.78
-32.77
-30.48
-27.03
-22.68
-17.78
-12.67
-7.63
-2.81
1.65
5.62
8.89
11.29
12.71
13.24
13.10
12.59
11.97
11.36
10.80
10.23
9.62
8.96
8.22
7.40
6.42
5.18
3.65
1.82
-0.22
-2.32
-4.35
-6.22
-7.91
-9.46
-10.93
-12.42
-14.07
-16.01
-18.35
-21.11
-24.23
-27.48
-30.51
-32.95
-34.42
-34.64
-33.46
-30.83
-26.84
-21.72
-15.80
-9.46
-3.10
2.97
8.53
13.44
17.62
20.98
23.44
24.98
25.66
25.69
25.31
24.79
24.28
23.81
23.29
22.59
21.63
20.38
18.86
17.10
15.13
12.96
10.62
8.12
5.50
2.81
0.12
-2.49
-4.94
-7.20
-9.31
-11.37
-13.50
-15.81
-18.39
-21.24
-24.30
-27.38
-30.16
-32.19
-33.00
-32.26
-29.87
-26.03
-21.14
-15.66
-9.93
-4.12
1.69
7.42
12.89
17.79
21.84
24.82
26.72
27.73
28.13
28.23
28.21
28.14
27.95
27.58
26.96
26.09
24.97
23.58
21.87
19.85
17.59
15.24
13.00
10.99
9.24
7.66
6.09
4.41
2.51
0.35
-2.06
-4.68
-7.45
-10.33
-13.27
-16.25
-19.20
-22.02
-24.43
-26.08
-26.57
-25.61
-23.08
-19.13
-14.12
-8.49
-2.65
3.11
8.59
13.61
17.99
21.54
24.06
25.49
25.92
25.65
25.05
24.46
24.06
23.86
23.66
23.24
22.44
21.22
19.69
17.98
16.23
14.46
12.57
10.44
8.01
5.29
2.43
-0.39
-3.05
-5.51
-7.83
-10.15
-12.57
-15.17
-17.99
-21.01
-24.17
-27.43
-30.64
-33.58
-35.89
-37.14
-36.91
-34.97
-31.39
-26.52
-20.95
-15.27
-9.87
-4.88
-0.26
4.01
7.85
11.02
13.30
14.61
15.14
15.26
15.31
15.44
15.57
15.46
14.88
13.80
12.33
10.73
9.21
7.84
6.53
5.06
3.29
1.18
-1.17
-3.55
-5.78
-7.82
-9.73
-11.70
-13.81
-16.07
-18.36
-20.60
-22.80
-25.12
-27.68
-30.50
-33.34
-35.78
-37.28
-37.44
-36.03
-33.05
-28.65
-23.08
-16.66
-9.75
-2.76
3.91
9.93
15.04
19.12
22.17
24.31
25.77
26.81
27.67
28.46
29.11
29.44
29.25
28.42
27.03
25.22
23.17
21.01
18.73
16.33
13.76
11.08
8.35
5.65
3.00
0.37
-2.29
-5.00
-7.73
-10.41
-12.97
-15.34
-17.53
-19.65
-21.84
-24.23
-26.88
-29.69
-32.40
-34.62
-35.89
-35.80
-34.11
-30.78
-26.04
-20.29
-13.96
-7.45
-0.98
5.30
11.27
16.72
21.39
25.03
27.54
29.02
29.75
30.07
30.19
30.17
29.95
29.45
28.68
27.67
26.51
25.23
23.79
22.13
20.20
18.01
15.63
13.18
10.76
8.44
6.23
4.09
1.94
-0.28
-2.62
-5.11
-7.73
-10.46
-13.28
-16.16
-19.09
-22.03
-24.90
-27.52
-29.61
-30.83
-30.83
-29.35
-26.35
-21.97
-16.54
-10.44
-4.09
2.15
7.95
13.01
17.15
20.31
22.60
24.24
25.46
26.43
27.18
27.68
27.86
27.69
27.16
26.25
24.93
23.23
21.20
19.03
16.90
14.96
13.22
11.57
9.82
7.84
5.56
3.03
0.38
-2.32
-5.00
-7.63
-10.22
-12.75
-15.23
-17.72
-20.28
-22.96
-25.77
-28.58
-31.16
-33.14
-34.10
-33.70
-31.78
-28.45
-24.01
-18.88
-13.48
-8.13
-3.03
1.63
5.73
9.11
11.62
13.23
14.01
14.11
13.77
13.21
12.58
12.01
11.48
10.92
10.21
9.24
7.98
6.51
5.01
3.60
2.35
1.18
-0.09
-1.61
-3.47
-5.62
-7.94
-10.28
-12.54
-14.64
-16.57
-18.35
-20.06
-21.87
-23.93
-26.38
-29.20
-32.22
-35.03
-37.07
-37.79
-36.72
-33.73
-28.98
-22.93
-16.22
-9.43
-3.04
2.70
7.69
11.94
15.49
18.35
20.54
22.07
23.00
23.45
23.54
23.41
23.14
22.76
22.24
21.56
20.72
19.74
18.65
17.43
16.03
14.36
12.40
10.15
7.75
5.28
2.83
0.47
-1.83
-4.09
-6.39
-8.78
-11.34
-14.06
-16.91
-19.81
-22.77
-25.79
-28.92
-32.05
-34.89
-36.94
-37.63
-36.55
-33.64
-29.13
-23.55
-17.42
-11.10
-4.82
1.31
7.15
12.53
17.24
21.12
24.12
26.31
27.82
28.80
29.35
29.53
29.35
28.79
27.87
26.61
25.13
23.55
21.99
20.52
19.12
17.70
16.09
14.18
11.90
9.31
6.53
3.71
0.98
-1.61
-4.04
-6.32
-8.49
-10.60
-12.73
-15.02
-17.63
-20.68
-24.14
-27.71
-30.87
-33.00
-33.59
-32.35
-29.36
-24.92
-19.46
-13.33
-6.86
-0.26
6.26
12.44
18.01
22.73
26.47
29.21
31.03
32.08
32.58
32.72
32.65
32.45
32.07
31.40
30.33
28.78
26.78
24.48
22.12
19.91
17.96
16.23
14.49
12.43
9.85
6.72
3.30
-0.04
-3.00
-5.46
-7.56
-9.55
-11.70
-14.17
-17.04
-20.34
-24.04
-28.00
-31.92
-35.28
-37.46
-37.95
-36.54
-33.36
-28.83
-23.48
-17.75
-12.00
-6.44
-1.19
3.62
7.91
11.56
14.50
16.64
17.93
18.39
18.13
17.37
16.41
15.51
14.84
14.40
14.03
13.55
12.79
11.73
10.39
8.83
7.06
5.04
2.68
-0.02
-3.00
-6.09
-9.09
-11.84
-14.28
-16.42
-18.36
-20.22
-22.16
-24.37
-27.05
-30.25
-33.80
-37.25
-39.94
-41.19
-40.56
-37.95
-33.64
-28.12
-21.93
-15.48
-9.04
-2.77
3.19
8.67
13.49
17.51
20.64
22.90
24.35
25.12
25.36
25.19
24.70
23.94
22.96
21.81
20.55
19.29
18.10
17.02
15.95
14.74
13.23
11.30
8.94
6.23
3.30
0.28
-2.74
-5.73
-8.63
-11.39
-13.97
-16.35
-18.65
-21.04
-23.77
-27.00
-30.69
-34.57
-38.16
-40.86
-42.11
-41.54
-39.02
-34.69
-28.90
-22.12
-14.86
-7.54
-0.47
6.20
12.36
17.95
22.87
26.96
30.11
32.27
33.52
34.02
34.03
33.74
33.23
32.52
31.56
30.31
28.79
27.06
25.18
23.21
21.17
19.05
16.77
14.24
11.41
8.29
4.98
1.69
-1.39
-4.14
-6.59
-8.86
-11.15
-13.64
-16.46
-19.65
-23.16
-26.87
-30.51
-33.72
-36.05
-37.05
-36.44
-34.08
-30.09
-24.74
-18.34
-11.25
-3.78
3.75
11.04
17.77
23.70
28.62
32.44
35.15
36.81
37.60
37.69
37.31
36.66
35.90
35.08
34.18
33.11
31.79
30.13
28.16
25.91
23.48
20.90
18.22
15.42
12.51
9.48
6.37
3.25
0.14
-2.92
-5.91
-8.83
-11.67
-14.46
-17.26
-20.21
-23.47
-27.10
-31.00
-34.80
-37.92
-39.72
-39.69
-37.60
-33.62
-28.24
-22.08
-15.71
-9.54
-3.77
1.58
6.49
10.90
14.67
17.62
19.63
20.70
20.99
20.76
20.29
19.77
19.26
18.64
17.74
16.45
14.76
12.79
10.73
8.73
6.80
4.83
2.61
0.01
-2.94
-6.08
-9.16
-11.96
-14.46
-16.76
-19.01
-21.33
-23.80
-26.40
-29.12
-31.96
-34.91
-37.85
-40.50
-42.44
-43.18
-42.33
-39.67
-35.28
-29.46
-22.70
-15.50
-8.32
-1.49
4.77
10.32
15.07
18.96
21.96
24.07
25.37
25.98
26.07
25.83
25.42
24.90
24.31
23.58
22.67
21.52
20.15
18.59
16.87
14.96
12.80
10.30
7.43
4.28
1.02
-2.12
-4.98
-7.49
-9.75
-11.94
-14.26
-16.82
-19.67
-22.77
-26.07
-29.55
-33.15
-36.71
-39.85
-42.01
-42.58
-41.18
-37.78
-32.71
-26.54
-19.82
-12.93
-6.04
0.84
7.65
14.24
20.32
25.58
29.76
32.75
34.63
35.56
35.78
35.52
34.94
34.13
33.12
31.91
30.52
28.99
27.33
25.55
23.55
21.27
18.62
15.60
12.31
8.92
5.61
2.50
-0.35
-3.01
-5.56
-8.07
-10.55
-13.00
-15.43
-17.95
-20.72
-23.87
-27.38
-31.00
-34.23
-36.49
-37.24
-36.19
-33.34
-28.93
-23.34
-16.99
-10.21
-3.26
3.72
10.59
17.18
23.28
28.66
33.10
36.44
38.65
39.86
40.28
40.16
39.73
39.14
38.44
37.59
36.47
34.93
32.85
30.24
27.22
24.02
20.86
17.88
15.09
12.39
9.64
6.77
3.82
0.83
-2.13
-5.04
-7.91
-10.74
-13.51
-16.21
-18.90
-21.70
-24.75
-28.08
-31.53
-34.72
-37.11
-38.21
-37.66
-35.39
-31.58
-26.59
-20.82
-14.61
-8.27
-2.04
3.86
9.20
13.73
17.28
19.75
21.19
21.76
21.71
21.33
20.81
20.21
19.50
18.59
17.41
15.97
14.37
12.72
11.09
9.44
7.65
5.58
3.15
0.43
-2.40
-5.15
-7.70
-10.05
-12.29
-14.56
-16.94
-19.44
-22.06
-24.78
-27.65
-30.68
-33.88
-37.08
-39.96
-42.09
-43.00
-42.37
-40.11
-36.38
-31.51
-25.90
-19.90
-13.76
-7.63
-1.62
4.09
9.30
13.77
17.32
19.89
21.54
22.41
22.68
22.52
22.10
21.52
20.87
20.18
19.41
18.45
17.21
15.65
13.81
11.77
9.67
7.58
5.56
3.62
1.68
-0.32
-2.44
-4.76
-7.30
-10.02
-12.88
-15.77
-18.61
-21.41
-24.24
-27.20
-30.30
-33.43
-36.27
-38.39
-39.35
-38.84
-36.73
-33.11
-28.24
-22.45
-16.06
-9.36
-2.53
4.21
10.68
16.64
21.83
26.08
29.28
31.49
32.84
33.51
33.68
33.48
33.01
32.37
31.62
30.79
29.80
28.51
26.81
24.65
22.15
19.48
16.83
14.27
11.76
9.23
6.61
3.93
1.27
-1.32
-3.84
-6.35
-8.94
-11.67
-14.52
-17.46
-20.48
-23.58
-26.73
-29.80
-32.51
-34.43
-35.08
-34.09
-31.32
-26.95
-21.39
-15.18
-8.76
-2.45
3.62
9.38
14.76
19.63
23.83
27.23
29.78
31.53
32.59
33.12
33.23
32.99
32.39
31.40
30.00
28.21
26.15
23.97
21.83
19.81
17.90
15.97
13.88
11.52
8.89
6.07
3.22
0.50
-2.05
-4.45
-6.83
-9.31
-11.96
-14.76
-17.65
-20.62
-23.64
-26.74
-29.83
-32.63
-34.71
-35.59
-34.93
-32.62
-28.87
-24.01
-18.46
-12.56
-6.60
-0.83
4.51
9.20
13.09
16.12
18.26
19.56
20.10
20.00
19.48
18.74
17.97
17.19
16.33
15.29
14.01
12.53
10.97
9.42
7.85
6.13
4.13
1.77
-0.90
-3.74
-6.61
-9.40
-12.05
-14.51
-16.78
-18.93
-21.05
-23.31
-25.85
-28.70
-31.76
-34.75
-37.32
-39.09
-39.72
-38.98
-36.79
-33.23
-28.56
-23.14
-17.37
-11.53
-5.80
-0.25
5.08
10.05
14.41
17.89
20.29
21.57
21.91
21.63
21.05
20.40
19.79
19.17
18.45
17.52
16.36
15.00
13.52
11.99
10.41
8.74
6.89
4.75
2.29
-0.43
-3.27
-6.05
-8.66
-11.08
-13.42
-15.82
-18.42
-21.28
-24.41
-27.75
-31.17
-34.42
-37.11
-38.73
-38.83
-37.08
-33.51
-28.45
-22.43
-16.01
-9.56
-3.24
2.96
9.06
14.93
20.29
24.81
28.19
30.34
31.40
31.67
31.46
31.03
30.47
29.77
28.87
27.70
26.28
24.63
22.78
20.71
18.41
15.88
13.16
10.38
7.66
5.07
2.63
0.24
-2.20
-4.80
-7.62
-10.67
-13.90
-17.29
-20.78
-24.25
-27.51
-30.26
-32.11
-32.69
-31.77
-29.28
-25.35
-20.26
-14.34
-7.86
-1.05
5.91
12.79
19.31
25.09
29.79
33.19
35.25
36.16
36.26
35.90
35.36
34.73
33.95
32.91
31.52
29.81
27.87
25.82
23.74
21.62
19.33
16.79
13.92
10.75
7.40
4.03
0.76
-2.29
-5.09
-7.66
-10.10
-12.55
-15.19
-18.14
-21.45
-25.00
-28.51
-31.60
-33.84
-34.88
-34.47
-32.52
-29.11
-24.42
-18.78
-12.56
-6.16
0.00
5.60
10.38
14.18
16.90
18.56
19.29
19.28
18.81
18.10
17.31
16.44
15.43
14.19
12.72
11.11
9.52
8.06
6.74
5.43
3.94
2.10
-0.14
-2.68
-5.38
-8.07
-10.69
-13.25
-15.81
-18.43
-21.13
-23.89
-26.70
-29.55
-32.38
-35.02
-37.15
-38.37
-38.30
-36.68
-33.47
-28.85
-23.17
-16.83
-10.24
-3.72
2.48
8.09
12.92
16.74
19.44
21.04
21.71
21.78
21.55
21.24
20.90
20.41
19.60
18.41
16.86
15.12
13.35
11.67
10.08
8.51
6.87
5.04
2.95
0.52
-2.22
-5.20
-8.27
-11.22
-13.95
-16.41
-18.73
-21.11
-23.75
-26.77
-30.12
-33.56
-36.72
-39.13
-40.29
-39.79
-37.37
-33.06
-27.07
-19.88
-12.07
-4.24
3.13
9.77
15.58
20.59
24.83
28.30
30.91
32.54
33.16
32.90
31.99
30.74
29.38
27.98
26.53
24.94
23.16
21.25
19.30
17.34
15.34
13.21
10.85
8.26
5.53
2.85
0.39
-1.80
-3.76
-5.69
-7.77
-10.17
-12.94
-16.05
-19.39
-22.82
-26.17
-29.17
-31.46
-32.63
-32.30
-30.22
-26.38
-21.03
-14.58
-7.51
-0.20
7.06
14.05
20.58
26.39
31.23
34.89
37.28
38.51
38.83
38.55
37.99
37.33
36.65
35.83
34.74
33.27
31.38
29.18
26.78
24.31
21.77
19.14
16.30
13.16
9.74
6.14
2.56
-0.81
-3.85
-6.59
-9.11
-11.54
-14.02
-16.66
-19.54
-22.69
-26.09
-29.53
-32.70
-35.08
-36.18
-35.62
-33.30
-29.42
-24.43
-18.81
-12.99
-7.26
-1.79
3.27
7.80
11.61
14.57
16.58
17.63
17.84
17.40
16.55
15.50
14.39
13.29
12.17
10.95
9.57
8.02
6.33
4.57
2.80
1.00
-0.88
-2.91
-5.10
-7.39
-9.67
-11.80
-13.71
-15.41
-16.98
-18.57
-20.33
-22.44
-25.00
-28.03
-31.36
-34.66
-37.45
-39.21
-39.52
-38.18
-35.20
-30.80
-25.32
-19.12
-12.54
-5.88
0.60
6.67
12.10
16.68
20.22
22.59
23.82
24.10
23.75
23.18
22.67
22.32
22.02
21.55
20.73
19.50
17.95
16.23
14.47
12.73
10.97
9.16
7.23
5.16
2.92
0.48
-2.16
-4.95
-7.78
-10.49
-12.96
-15.14
-17.12
-19.02
-21.02
-23.30
-25.95
-28.98
-32.29
-35.57
-38.38
-40.18
-40.48
-38.97
-35.63
-30.71
-24.66
-17.96
-11.02
-4.09
2.66
9.12
15.12
20.42
24.79
28.06
30.21
31.35
31.72
31.58
31.17
30.59
29.89
29.10
28.21
27.29
26.36
25.44
24.46
23.30
21.88
20.13
18.10
15.92
13.74
11.64
9.66
7.73
5.75
3.63
1.32
-1.20
-3.89
-6.69
-9.50
-12.26
-14.92
-17.48
-19.99
-22.47
-24.89
-27.05
-28.66
-29.35
-28.78
-26.76
-23.31
-18.60
-12.93
-6.68
-0.23
6.05
11.85
16.93
21.17
24.46
26.81
28.24
28.86
28.86
28.45
27.89
27.33
26.81
26.24
25.47
24.38
22.90
21.09
19.06
16.96
14.88
12.84
10.79
8.68
6.48
4.23
1.99
-0.21
-2.37
-4.59
-6.95
-9.45
-12.01
-14.47
-16.72
-18.79
-20.87
-23.24
-26.09
-29.34
-32.64
-35.40
-36.99
-37.02
-35.35
-32.16
-27.83
-22.77
-17.37
-11.91
-6.66
-1.83
2.41
5.92
8.64
10.55
11.71
12.21
12.15
11.71
11.09
10.48
10.04
9.78
9.61
9.34
8.81
7.94
6.75
5.38
3.95
2.53
1.10
-0.43
-2.11
-3.95
-5.90
-7.88
-9.86
-11.84
-13.85
-15.87
-17.89
-19.86
-21.83
-23.87
-26.12
-28.62
-31.32
-33.96
-36.13
-37.39
-37.33
-35.70
-32.45
-27.77
-22.00
-15.61
-9.06
-2.75
3.08
8.33
13.00
17.11
20.66
23.56
25.72
27.07
27.63
27.50
26.83
25.83
24.69
23.56
22.55
21.70
20.95
20.19
19.26
18.01
16.36
14.34
12.07
9.68
7.31
5.00
2.77
0.62
-1.48
-3.51
-5.52
-7.57
-9.74
-12.05
-14.52
-17.09
-19.71
-22.35
-25.06
-27.80
-30.39
-32.42
-33.41
-32.90
-30.71
-26.94
-21.96
-16.21
-10.11
-3.91
2.18
8.00
13.39
18.17
22.25
25.60
28.22
30.11
31.25
31.71
31.58
31.05
30.34
29.58
28.85
28.11
27.33
26.52
25.66
24.74
23.63
22.19
20.31
18.02
15.47
12.88
10.40
8.04
5.72
3.36
0.93
-1.48
-3.77
-5.86
-7.82
-9.85
-12.16
-14.92
-18.15
-21.74
-25.43
-28.83
-31.52
-33.03
-32.99
-31.21
-27.80
-23.13
-17.74
-12.16
-6.77
-1.75
2.88
7.09
10.79
13.82
16.03
17.43
18.11
18.29
18.18
17.89
17.48
16.94
16.27
15.44
14.45
13.32
12.03
10.64
9.21
7.78
6.31
4.72
2.89
0.78
-1.56
-3.95
-6.22
-8.25
-10.08
-11.89
-13.84
-16.06
-18.57
-21.30
-24.20
-27.20
-30.22
-33.08
-35.44
-36.91
-37.08
-35.71
-32.84
-28.73
-23.78
-18.36
-12.76
-7.15
-1.71
3.34
7.74
11.24
13.71
15.22
15.99
16.33
16.48
16.56
16.54
16.28
15.74
14.93
13.98
13.01
12.08
11.16
10.13
8.86
7.30
5.50
3.55
1.53
-0.55
-2.69
-4.90
-7.20
-9.56
-11.93
-14.31
-16.71
-19.18
-21.77
-24.53
-27.48
-30.52
-33.47
-35.97
-37.59
-37.84
-36.41
-33.17
-28.33
-22.29
-15.56
-8.60
-1.76
4.72
10.67
15.91
20.30
23.74
26.23
27.89
28.88
29.40
29.52
29.27
28.56
27.37
25.78
23.95
22.12
20.47
19.08
17.89
16.71
15.34
13.62
11.47
8.91
6.00
2.86
-0.33
-3.43
-6.32
-8.95
-11.43
-13.94
-16.70
-19.88
-23.48
-27.32
-31.07
-34.28
-36.49
-37.29
-36.37
-33.66
-29.27
-23.55
-16.98
-10.07
-3.20
3.38
9.55
15.22
20.29
24.59
28.01
30.47
32.03
32.90
33.26
33.30
33.07
32.53
31.63
30.40
28.95
27.46
26.09
24.88
23.72
22.39
20.64
18.36
15.59
12.50
9.31
6.21
3.26
0.45
-2.32
-5.13
-8.01
-11.03
-14.22
-17.63
-21.27
-25.02
-28.55
-31.34
-32.77
-32.32
-29.77
-25.29
-19.39
-12.73
-5.92
0.66
6.79
12.35
17.24
21.31
24.43
26.56
27.74
28.16
28.03
27.52
26.75
25.76
24.55
23.12
21.47
19.67
17.80
15.95
14.18
12.45
10.69
8.79
6.71
4.47
2.15
-0.21
-2.58
-5.00
-7.50
-10.11
-12.78
-15.54
-18.40
-21.45
-24.70
-28.02
-31.12
-33.54
-34.78
-34.47
-32.43
-28.75
-23.68
-17.58
-10.82
-3.85
2.90
8.96
13.94
17.54
19.70
20.56
20.45
19.77
18.83
17.82
16.78
15.67
14.44
13.13
11.82
10.57
9.33
7.98
6.35
4.34
1.92
-0.78
-3.61
-6.43
-9.13
-11.63
-13.90
-15.95
-17.90
-19.91
-22.23
-25.05
-28.39
-32.09
-35.80
-39.04
-41.33
-42.24
-41.49
-38.98
-34.80
-29.28
-22.85
-15.96
-8.99
-2.16
4.39
10.50
15.96
20.53
24.02
26.36
27.64
28.06
27.87
27.26
26.34
25.19
23.82
22.28
20.60
18.84
17.04
15.23
13.38
11.41
9.19
6.63
3.71
0.51
-2.81
-6.07
-9.16
-12.05
-14.83
-17.61
-20.54
-23.74
-27.30
-31.21
-35.28
-39.10
-42.12
-43.77
-43.66
-41.69
-38.04
-33.08
-27.22
-20.74
-13.83
-6.54
1.00
8.57
15.79
22.19
27.33
30.99
33.20
34.20
34.39
34.14
33.71
33.15
32.38
31.29
29.78
27.81
25.45
22.81
20.05
17.31
14.69
12.24
9.88
7.49
4.96
2.24
-0.63
-3.56
-6.46
-9.32
-12.23
-15.31
-18.67
-22.37
-26.32
-30.37
-34.23
-37.55
-39.93
-40.98
-40.39
-38.04
-33.99
-28.46
-21.83
-14.46
-6.68
1.22
8.99
16.38
23.11
28.94
33.69
37.31
39.84
41.37
42.04
41.95
41.21
39.99
38.47
36.84
35.24
33.70
32.14
30.45
28.52
26.28
23.73
20.93
17.96
14.94
11.94
9.04
6.24
3.52
0.82
-1.89
-4.64
-7.46
-10.43
-13.61
-17.08
-20.84
-24.81
-28.77
-32.43
-35.43
-37.41
-38.04
-37.04
-34.32
-29.96
-24.22
-17.52
-10.33
-3.07
3.96
10.52
16.44
21.57
25.71
28.73
30.58
31.33
31.20
30.48
29.45
28.31
27.17
26.09
25.04
23.99
22.86
21.61
20.17
18.52
16.62
14.44
11.96
9.17
6.12
2.92
-0.25
-3.26
-6.05
-8.67
-11.25
-13.87
-16.54
-19.22
-21.87
-24.55
-27.38
-30.46
-33.71
-36.81
-39.22
-40.36
-39.81
-37.44
-33.46
-28.28
-22.42
-16.30
-10.22
-4.34
1.25
6.39
10.88
14.50
17.04
18.45
18.86
18.57
17.91
17.19
16.58
16.11
15.73
15.36
14.88
14.22
13.25
11.91
10.17
8.12
5.92
3.75
1.72
-0.17
-2.03
-3.95
-5.96
-8.07
-10.23
-12.45
-14.78
-17.23
-19.82
-22.53
-25.33
-28.22
-31.20
-34.16
-36.81
-38.71
-39.40
-38.53
-36.00
-31.97
-26.77
-20.75
-14.24
-7.50
-0.77
5.68
11.60
16.81
21.13
24.49
26.88
28.34
28.96
28.93
28.46
27.76
27.03
26.36
25.75
25.10
24.21
22.94
21.22
19.11
16.78
14.47
12.33
10.41
8.62
6.81
4.84
2.64
0.24
-2.28
-4.82
-7.32
-9.75
-12.09
-14.33
-16.47
-18.57
-20.75
-23.19
-25.99
-29.15
-32.41
-35.29
-37.19
-37.60
-36.21
-33.02
-28.32
-22.53
-16.13
-9.52
-3.02
3.14
8.82
13.90
18.33
22.04
24.97
27.10
28.47
29.17
29.37
29.23
28.88
28.35
27.70
26.95
26.17
25.41
24.65
23.80
22.70
21.24
19.42
17.37
15.26
13.25
11.35
9.49
7.58
5.53
3.35
1.10
-1.13
-3.31
-5.43
-7.47
-9.42
-11.31
-13.17
-15.10
-17.24
-19.64
-22.25
-24.80
-26.92
-28.16
-28.17
-26.73
-23.85
-19.76
-14.79
-9.35
-3.80
1.59
6.61
11.10
14.95
18.02
20.25
21.62
22.27
22.39
22.20
21.88
21.52
21.12
20.66
20.09
19.40
18.62
17.73
16.70
15.46
13.98
12.22
10.27
8.20
6.13
4.12
2.16
0.18
-1.94
-4.23
-6.66
-9.13
-11.48
-13.62
-15.55
-17.37
-19.25
-21.37
-23.79
-26.44
-29.09
-31.38
-32.88
-33.23
-32.19
-29.71
-26.00
-21.41
-16.42
-11.43
-6.74
-2.50
1.26
4.47
7.05
8.89
9.89
10.10
9.73
9.07
8.42
7.95
7.70
7.63
7.67
7.78
7.89
7.91
7.67
7.02
5.88
4.29
2.44
0.56
-1.14
-2.60
-3.89
-5.18
-6.61
-8.27
-10.16
-12.15
-14.15
-16.05
-17.86
-19.66
-21.60
-23.80
-26.30
-29.00
-31.63
-33.77
-34.95
-34.79
-33.09
-29.92
-25.56
-20.45
-15.00
-9.60
-4.48
0.24
4.51
8.32
11.65
14.45
16.65
18.17
19.01
19.26
19.10
18.73
18.28
17.80
17.24
16.50
15.54
14.36
13.00
11.48
9.79
7.91
5.88
3.75
1.65
-0.39
-2.39
-4.50
-6.88
-9.64
-12.77
-16.12
-19.48
-22.66
-25.58
-28.28
-30.94
-33.76
-36.94
-40.48
-44.23
-47.81
-50.66
-52.19
-51.90
-49.51
-45.01
-38.67
-30.90
-22.21
-13.05
-3.80
5.30
14.02
22.16
29.46
35.67
40.58
44.12
46.37
47.55
47.90
47.66
46.97
45.90
44.51
42.85
40.94
38.84
36.56
34.08
31.45
28.73
26.01
23.32
20.66
17.97
15.18
12.22
9.10
5.87
2.63
-0.53
-3.55
-6.39
-9.07
-11.64
-14.19
-16.81
-19.52
-22.21
-24.63
-26.38
-27.01
-26.20
-23.83
-20.06
-15.24
-9.78
-4.06
1.65
7.18
12.33
16.86
20.55
23.24
24.95
25.86
26.20
26.19
25.95
25.47
24.75
23.79
22.67
21.45
20.18
18.89
17.55
16.16
14.71
13.19
11.55
9.68
7.55
5.15
2.61
0.08
-2.30
-4.46
-6.40
-8.22
-10.03
-11.99
-14.21
-16.78
-19.72
-22.90
-26.08
-28.88
-30.91
-31.84
-31.49
-29.84
-27.02
-23.26
-18.85
-14.06
-9.16
-4.33
0.24
4.38
7.92
10.66
12.49
13.37
13.45
13.01
12.38
11.81
11.41
11.13
10.84
10.40
9.73
8.85
7.83
6.71
5.50
4.19
2.75
1.19
-0.49
-2.27
-4.17
-6.23
-8.47
-10.85
-13.26
-15.58
-17.79
-19.91
-22.10
-24.50
-27.14
-29.89
-32.43
-34.31
-35.13
-34.57
-32.50
-28.96
-24.17
-18.48
-12.32
-6.10
-0.19
5.14
9.73
13.52
16.52
18.80
20.47
21.62
22.35
22.73
22.81
22.63
22.23
21.66
20.90
19.92
18.68
17.18
15.47
13.67
11.83
9.91
7.81
5.42
2.73
-0.15
-3.02
-5.67
-8.05
-10.26
-12.46
-14.83
-17.51
-20.49
-23.73
-27.11
-30.46
-33.51
-35.90
-37.20
-37.07
-35.28
-31.82
-26.96
-21.07
-14.61
-7.93
-1.29
5.15
11.26
16.87
21.76
25.72
28.59
30.36
31.17
31.28
30.98
30.48
29.88
29.13
28.14
26.84
25.26
23.47
21.60
19.75
17.96
16.16
14.27
12.17
9.79
7.15
4.26
1.24
-1.82
-4.78
-7.57
-10.13
-12.49
-14.76
-17.10
-19.68
-22.62
-25.85
-29.08
-31.78
-33.31
-33.16
-31.07
-27.16
-21.83
-15.63
-9.06
-2.49
3.88
9.94
15.57
20.63
24.96
28.45
31.06
32.82
33.79
34.08
33.80
33.08
32.05
30.83
29.49
28.05
26.52
24.87
23.15
21.37
19.54
17.67
15.66
13.45
10.98
8.23
5.26
2.18
-0.91
-3.91
-6.77
-9.45
-12.01
-14.50
-17.09
-19.91
-23.07
-26.51
-30.01
-33.15
-35.41
-36.31
-35.52
-32.96
-28.78
-23.34
-17.09
-10.53
-4.11
1.85
7.09
11.49
14.96
17.48
19.03
19.70
19.67
19.22
18.63
18.06
17.54
16.93
16.04
14.78
13.17
11.40
9.68
8.13
6.70
5.25
3.57
1.55
-0.78
-3.29
-5.84
-8.33
-10.78
-13.22
-15.69
-18.20
-20.78
-23.48
-26.42
-29.68
-33.22
-36.80
-39.95
-42.09
-42.73
-41.53
-38.49
-33.84
-27.97
-21.36
-14.42
-7.50
-0.87
5.25
10.67
15.23
18.84
21.49
23.27
24.36
24.95
25.22
25.29
25.20
24.95
24.45
23.64
22.43
20.83
18.90
16.83
14.82
13.02
11.43
9.89
8.14
5.97
3.30
0.26
-2.89
-5.86
-8.51
-10.82
-12.95
-15.07
-17.34
-19.85
-22.66
-25.77
-29.11
-32.52
-35.68
-38.13
-39.40
-39.05
-36.83
-32.77
-27.15
-20.49
-13.33
-6.13
0.85
7.52
13.84
19.70
24.88
29.07
32.02
33.68
34.20
33.91
33.17
32.22
31.23
30.23
29.21
28.17
27.01
25.65
23.98
21.96
19.63
17.14
14.61
12.12
9.67
7.19
4.65
2.09
-0.38
-2.67
-4.75
-6.73
-8.74
-10.96
-13.50
-16.39
-19.59
-23.00
-26.43
-29.58
-32.07
-33.50
-33.48
-31.80
-28.44
-23.60
-17.68
-11.12
-4.38
2.21
8.46
14.29
19.67
24.49
28.60
31.78
33.89
34.97
35.21
34.95
34.43
33.81
33.05
32.08
30.84
29.36
27.76
26.13
24.47
22.71
20.74
18.47
15.90
13.08
10.09
7.03
3.99
1.07
-1.68
-4.23
-6.62
-8.98
-11.42
-14.05
-16.89
-19.92
-23.08
-26.28
-29.47
-32.48
-35.02
-36.64
-36.86
-35.28
-31.84
-26.78
-20.69
-14.23
-7.94
-2.14
3.07
7.70
11.69
14.88
17.09
18.26
18.53
18.24
17.76
17.30
16.83
16.18
15.16
13.71
12.04
10.40
9.02
7.92
6.92
5.76
4.24
2.30
0.03
-2.42
-4.93
-7.46
-9.98
-12.41
-14.68
-16.67
-18.42
-20.06
-21.85
-23.99
-26.55
-29.45
-32.44
-35.21
-37.43
-38.81
-39.08
-38.03
-35.55
-31.68
-26.66
-20.82
-14.56
-8.20
-1.98
3.94
9.34
14.01
17.68
20.19
21.59
22.10
22.09
21.89
21.69
21.46
21.08
20.41
19.43
18.26
17.02
15.80
14.56
13.19
11.58
9.70
7.59
5.37
3.10
0.84
-1.46
-3.82
-6.28
-8.78
-11.23
-13.57
-15.76
-17.87
-20.04
-22.47
-25.29
-28.46
-31.71
-34.53
-36.38
-36.80
-35.60
-32.86
-28.86
-23.95
-18.40
-12.44
-6.28
-0.11
5.84
11.39
16.38
20.67
24.15
26.71
28.30
28.98
28.98
28.58
28.06
27.57
27.14
26.70
26.12
25.33
24.27
22.88
21.15
19.07
16.73
14.25
11.78
9.38
7.02
4.64
2.19
-0.28
-2.72
-5.05
-7.31
-9.57
-11.97
-14.63
-17.58
-20.81
-24.18
-27.47
-30.32
-32.35
-33.18
-32.54
-30.35
-26.74
-21.98
-16.39
-10.30
-3.96
2.45
8.72
14.66
20.02
24.56
28.08
30.50
31.86
32.41
32.45
32.27
32.07
31.88
31.61
31.15
30.39
29.27
27.78
25.97
23.88
21.55
19.02
16.33
13.51
10.58
7.58
4.55
1.54
-1.33
-3.98
-6.37
-8.54
-10.61
-12.75
-15.13
-17.82
-20.85
-24.10
-27.38
-30.39
-32.76
-34.12
-34.10
-32.54
-29.48
-25.18
-20.06
-14.56
-9.03
-3.70
1.28
5.76
9.61
12.70
14.95
16.40
17.15
17.36
17.21
16.83
16.33
15.76
15.09
14.30
13.29
12.06
10.60
9.00
7.35
5.69
3.99
2.18
0.17
-2.08
-4.46
-6.86
-9.12
-11.17
-13.02
-14.78
-16.58
-18.55
-20.79
-23.32
-26.12
-29.10
-32.10
-34.83
-36.89
-37.84
-37.33
-35.22
-31.61
-26.86
-21.47
-15.89
-10.48
-5.36
-0.60
3.81
7.83
11.35
14.27
16.49
18.02
18.89
19.25
19.22
18.93
18.46
17.84
17.04
16.05
14.86
13.53
12.15
10.82
9.55
8.27
6.82
5.04
2.84
0.30
-2.37
-4.88
-7.04
-8.80
-10.32
-11.87
-13.70
-15.95
-18.62
-21.64
-24.88
-28.20
-31.35
-34.01
-35.72
-36.07
-34.79
-31.87
-27.54
-22.18
-16.18
-9.86
-3.50
2.64
8.34
13.40
17.70
21.20
23.99
26.18
27.84
29.04
29.80
30.09
29.93
29.31
28.32
27.04
25.62
24.15
22.69
21.17
19.47
17.47
15.12
12.49
9.76
7.09
4.62
2.36
0.26
-1.77
-3.81
-5.94
-8.20
-10.57
-13.04
-15.60
-18.26
-21.07
-23.97
-26.78
-29.10
-30.42
-30.25
-28.38
-24.88
-20.07
-14.38
-8.15
-1.59
5.09
11.65
17.73
22.90
26.89
29.62
31.24
32.06
32.40
32.52
32.56
32.52
32.34
31.86
30.96
29.56
27.73
25.60
23.36
21.12
18.89
16.63
14.27
11.75
9.09
6.32
3.55
0.86
-1.64
-3.95
-6.10
-8.25
-10.56
-13.19
-16.22
-19.57
-23.06
-26.43
-29.39
-31.63
-32.82
-32.70
-31.09
-28.01
-23.67
-18.45
-12.81
-7.16
-1.80
3.13
7.53
11.29
14.26
16.31
17.40
17.64
17.30
16.70
16.09
15.58
15.13
14.62
13.89
12.89
11.61
10.13
8.55
6.94
5.25
3.39
1.20
-1.38
-4.28
-7.30
-10.14
-12.62
-14.68
-16.47
-18.25
-20.25
-22.57
-25.19
-27.98
-30.81
-33.52
-35.87
-37.54
-38.14
-37.31
-34.91
-31.04
-26.03
-20.32
-14.31
-8.29
-2.46
2.97
7.81
11.81
14.87
17.01
18.41
19.32
19.98
20.51
20.90
21.07
20.87
20.20
19.02
17.43
15.62
13.79
12.05
10.37
8.57
6.53
4.21
1.74
-0.65
-2.79
-4.67
-6.46
-8.40
-10.67
-13.32
-16.26
-19.39
-22.62
-25.93
-29.30
-32.60
-35.56
-37.78
-38.81
-38.30
-36.10
-32.33
-27.33
-21.50
-15.24
-8.80
-2.33
4.08
10.27
16.02
21.01
24.98
27.82
29.59
30.57
31.03
31.22
31.29
31.24
30.97
30.38
29.34
27.81
25.83
23.55
21.16
18.80
16.55
14.32
12.01
9.53
6.88
4.16
1.47
-1.17
-3.81
-6.58
-9.54
-12.66
-15.86
-19.04
-22.19
-25.34
-28.45
-31.40
-33.86
-35.42
-35.68
-34.34
-31.37
-26.91
-21.25
-14.78
-7.81
-0.63
6.53
13.43
19.80
25.35
29.80
33.00
34.99
36.01
36.42
36.61
36.82
37.06
37.19
36.94
36.11
34.65
32.62
30.21
27.59
24.90
22.20
19.52
16.85
14.18
11.46
8.66
5.74
2.69
-0.45
-3.61
-6.69
-9.67
-12.55
-15.44
-18.44
-21.61
-24.95
-28.29
-31.37
-33.77
-35.10
-35.00
-33.33
-30.14
-25.66
-20.27
-14.37
-8.34
-2.46
3.03
7.96
12.18
15.59
18.14
19.82
20.70
20.88
20.57
20.00
19.40
18.92
18.52
18.05
17.27
16.01
14.30
12.29
10.24
8.30
6.50
4.68
2.63
0.23
-2.53
-5.49
-8.44
-11.21
-13.73
-16.02
-18.18
-20.34
-22.61
-25.07
-27.74
-30.52
-33.26
-35.64
-37.28
-37.75
-36.71
-33.98
-29.70
-24.21
-18.08
-11.84
-5.93
-0.59
4.10
8.12
11.50
14.22
16.26
17.63
18.43
18.76
18.72
18.41
17.83
17.00
15.96
14.79
13.62
12.53
11.54
10.57
9.45
8.01
6.17
3.90
1.33
-1.37
-4.01
-6.41
-8.52
-10.35
-12.02
-13.71
-15.58
-17.79
-20.43
-23.52
-26.97
-30.57
-33.97
-36.72
-38.32
-38.33
-36.52
-32.94
-27.87
-21.76
-15.09
-8.22
-1.41
5.15
11.30
16.82
21.47
25.05
27.47
28.85
29.43
29.51
29.37
29.15
28.84
28.35
27.60
26.56
25.22
23.65
21.87
19.93
17.84
15.67
13.44
11.21
8.94
6.57
4.02
1.22
-1.81
-4.94
-7.96
-10.68
-13.01
-15.02
-16.92
-19.00
-21.49
-24.49
-27.86
-31.26
-34.15
-35.97
-36.27
-34.82
-31.66
-27.05
-21.40
-15.12
-8.58
-2.01
4.42
10.56
16.24
21.25
25.40
28.56
30.71
31.96
32.48
32.49
32.15
31.59
30.87
30.02
29.11
28.18
27.24
26.25
25.09
23.61
21.69
19.34
16.72
14.08
11.68
9.61
7.83
6.13
4.28
2.16
-0.23
-2.72
-5.17
-7.51
-9.87
-12.46
-15.49
-19.04
-22.90
-26.63
-29.65
-31.44
-31.63
-30.14
-27.14
-22.94
-17.94
-12.49
-6.89
-1.34
3.94
8.78
13.05
16.63
19.49
21.62
23.04
23.73
23.74
23.16
22.17
20.98
19.75
18.56
17.40
16.19
14.92
13.61
12.30
10.98
9.58
7.97
6.09
3.91
1.54
-0.88
-3.22
-5.42
-7.46
-9.42
-11.39
-13.44
-15.66
-18.08
-20.71
-23.53
-26.50
-29.51
-32.35
-34.65
-36.00
-36.00
-34.44
-31.39
-27.15
-22.18
-16.91
-11.65
-6.56
-1.72
2.78
6.79
10.10
12.52
13.94
14.40
14.10
13.37
12.55
11.92
11.59
11.51
11.50
11.35
10.92
10.14
9.03
7.63
5.99
4.18
2.27
0.33
-1.57
-3.42
-5.24
-7.10
-9.07
-11.12
-13.17
-15.16
-17.05
-18.92
-20.94
-23.25
-25.89
-28.77
-31.61
-33.99
-35.49
-35.76
-34.59
-32.01
-28.21
-23.48
-18.16
-12.51
-6.71
-0.89
4.80
10.19
15.09
19.29
22.65
25.10
26.65
27.37
27.40
26.92
26.08
25.04
23.91
22.76
21.59
20.40
19.15
17.81
16.34
14.70
12.87
10.86
8.70
6.43
4.05
1.60
-0.90
-3.38
-5.73
-7.86
-9.74
-11.43
-13.10
-14.93
-17.08
-19.61
-22.50
-25.62
-28.73
-31.51
-33.58
-34.56
-34.16
-32.27
-28.99
-24.58
-19.40
-13.77
-7.97
-2.19
3.42
8.76
13.68
18.02
21.63
24.43
26.40
27.66
28.39
28.78
28.97
28.99
28.80
28.34
27.54
26.44
25.09
23.57
21.96
20.32
18.66
16.99
15.26
13.42
11.44
9.30
7.02
4.66
2.28
-0.06
-2.32
-4.47
-6.49
-8.36
-10.11
-11.79
-13.52
-15.45
-17.72
-20.38
-23.28
-26.00
-27.97
-28.57
-27.40
-24.44
-20.01
-14.69
-9.06
-3.51
1.81
6.83
11.52
15.75
19.35
22.17
24.19
25.48
26.15
26.30
26.02
25.38
24.46
23.39
22.24
21.06
19.87
18.66
17.43
16.19
14.92
13.58
12.19
10.77
9.33
7.87
6.30
4.46
2.27
-0.27
-3.01
-5.72
-8.22
-10.41
-12.32
-14.09
-15.90
-17.97
-20.49
-23.55
-27.03
-30.54
-33.46
-35.12
-35.07
-33.23
-29.89
-25.56
-20.79
-15.95
-11.23
-6.67
-2.28
1.87
5.63
8.78
11.13
12.63
13.33
13.44
13.20
12.82
12.37
11.84
11.16
10.32
9.37
8.39
7.39
6.33
5.14
3.75
2.19
0.49
-1.25
-3.01
-4.82
-6.73
-8.73
-10.79
-12.81
-14.74
-16.56
-18.35
-20.23
-22.34
-24.79
-27.61
-30.67
-33.68
-36.22
-37.83
-38.08
-36.75
-33.83
-29.54
-24.28
-18.49
-12.55
-6.75
-1.21
4.01
8.88
13.30
17.11
20.15
22.30
23.56
24.09
24.05
23.67
23.09
22.42
21.72
21.03
20.36
19.68
18.90
17.91
16.61
14.99
13.10
11.00
8.76
6.43
4.04
1.65
-0.73
-3.02
-5.20
-7.29
-9.36
-11.51
-13.87
-16.54
-19.55
-22.89
-26.44
-30.02
-33.33
-36.01
-37.63
-37.79
-36.19
-32.78
-27.81
-21.80
-15.32
-8.88
-2.72
3.13
8.75
14.15
19.20
23.61
27.09
29.50
30.88
31.49
31.66
31.67
31.66
31.57
31.27
30.62
29.54
28.07
26.31
24.41
22.42
20.38
18.24
16.02
13.74
11.50
9.35
7.27
5.16
2.89
0.36
-2.40
-5.28
-8.15
-10.90
-13.58
-16.32
-19.28
-22.53
-25.98
-29.31
-32.09
-33.81
-34.05
-32.56
-29.35
-24.69
-18.98
-12.69
-6.24
0.10
6.13
11.75
16.82
21.18
24.64
27.07
28.49
29.08
29.15
28.99
28.78
28.52
28.10
27.35
26.22
24.78
23.18
21.54
19.90
18.19
16.31
14.22
11.94
9.56
7.14
4.69
2.17
-0.43
-3.11
-5.78
-8.38
-10.91
-13.43
-16.08
-18.95
-22.08
-25.38
-28.66
-31.68
-34.14
-35.72
-36.12
-35.16
-32.78
-29.11
-24.41
-19.03
-13.29
-7.49
-1.83
3.50
8.32
12.42
15.60
17.74
18.82
19.04
18.71
18.18
17.68
17.28
16.85
16.20
15.19
13.82
12.25
10.61
9.00
7.39
5.65
3.71
1.56
-0.73
-3.08
-5.46
-7.87
-10.35
-12.88
-15.39
-17.82
-20.15
-22.46
-24.89
-27.59
-30.62
-33.88
-37.09
-39.85
-41.69
-42.20
-41.08
-38.23
-33.80
-28.09
-21.52
-14.53
-7.49
-0.68
5.71
11.51
16.56
20.69
23.78
25.80
26.88
27.26
27.25
27.04
26.74
26.37
25.87
25.16
24.23
23.07
21.66
20.03
18.16
16.06
13.77
11.32
8.74
6.06
3.29
0.49
-2.27
-4.92
-7.41
-9.76
-12.09
-14.53
-17.20
-20.15
-23.35
-26.76
-30.26
-33.72
-36.92
-39.52
-41.07
-41.13
-39.37
-35.75
-30.50
-24.06
-16.92
-9.51
-2.11
5.08
11.91
18.18
23.64
28.09
31.43
33.70
35.11
35.91
36.31
36.45
36.32
35.87
35.05
33.85
32.30
30.46
28.39
26.11
23.66
21.11
18.56
16.09
13.71
11.35
8.88
6.17
3.20
0.06
-3.07
-6.00
-8.65
-11.06
-13.36
-15.76
-18.41
-21.38
-24.63
-27.93
-30.95
-33.25
-34.37
-33.91
-31.66
-27.65
-22.17
-15.67
-8.65
-1.49
5.55
12.30
18.63
24.28
28.95
32.37
34.44
35.33
35.40
35.08
34.68
34.30
33.81
33.05
31.90
30.39
28.65
26.80
24.87
22.81
20.51
17.89
15.01
11.98
8.96
6.03
3.25
0.55
-2.14
-4.89
-7.71
-10.57
-13.40
-16.14
-18.78
-21.38
-24.06
-26.96
-30.09
-33.28
-36.12
-38.07
-38.60
-37.37
-34.33
-29.71
-23.97
-17.63
-11.12
-4.76
1.24
6.76
11.65
15.78
18.98
21.20
22.46
22.93
22.81
22.30
21.57
20.70
19.78
18.85
17.99
17.22
16.50
15.74
14.80
13.57
12.01
10.17
8.12
5.95
3.74
1.51
-0.70
-2.84
-4.86
-6.73
-8.51
-10.29
-12.24
-14.47
-17.03
-19.92
-23.01
-26.16
-29.12
-31.53
-33.01
-33.18
-31.84
-29.01
-24.96
-20.04
-14.59
-8.81
