1603462567.00
64.000000
-0.00
-0.00
-0.00
-0.00
-0.00
-0.00
-0.00
-0.00
-0.00
-0.00
0.00
0.01
0.01
-0.00
-0.03
-0.05
-0.05
0.00
0.13
0.36
0.66
1.01
1.37
1.72
2.06
2.40
2.79
3.24
3.80
4.42
5.06
5.66
6.20
6.68
7.15
7.68
8.31
9.14
10.09
11.04
11.88
12.56
13.14
13.76
14.65
15.96
17.91
20.32
22.90
25.38
27.58
29.57
31.68
34.32
37.81
42.54
48.15
54.10
59.83
64.97
69.58
74.14
79.34
85.71
93.76
103.00
112.62
121.73
129.77
136.75
143.30
150.75
157.77
166.64
177.95
191.79
206.97
220.57
228.25
225.36
208.53
176.87
132.76
80.05
23.07
-34.94
-92.44
-149.16
-205.23
-260.37
-313.74
-363.87
-409.83
-450.91
-486.50
-515.74
-537.23
-549.22
-549.96
-538.37
-514.21
-478.67
-433.88
-382.45
-327.02
-269.84
-212.63
-156.66
-102.95
-52.37
-5.90
35.58
71.43
101.35
125.50
144.38
158.69
169.15
176.37
180.75
182.58
182.09
179.54
175.26
169.65
163.11
156.00
148.57
140.99
133.34
125.67
118.00
110.36
102.81
95.41
88.20
81.26
74.61
68.30
62.32
56.65
51.27
46.13
41.23
36.58
32.24
28.25
24.67
21.46
18.56
15.84
13.19
10.58
8.05
5.75
3.83
2.39
1.39
0.65
-0.10
-1.09
-2.42
-4.00
-5.54
-6.73
-7.35
-7.44
-7.29
-7.33
-7.94
-9.25
-11.07
-12.96
-14.44
-15.20
-15.26
-14.94
-14.72
-14.98
-16.01
-17.97
-20.89
-24.45
-27.80
-29.52
-27.99
-22.09
-11.94
0.92
13.93
24.55
31.22
33.84
33.50
31.64
29.34
26.97
24.45
21.72
19.03
16.91
15.78
15.60
15.85
15.74
14.62
12.29
9.21
6.26
4.44
4.45
6.45
10.02
14.24
18.10
20.80
21.94
21.58
20.09
17.96
15.59
13.28
11.14
9.23
7.64
6.54
6.16
6.71
8.25
10.57
13.25
15.79
17.67
18.61
18.47
17.25
15.06
12.07
8.34
4.06
-0.45
-4.83
-8.78
-12.14
-14.85
-16.99
-18.63
-19.82
-20.56
-20.85
-20.68
-20.12
-19.21
-18.08
-16.84
-15.63
-14.66
-14.07
-13.94
-14.18
-14.48
-14.37
-13.31
-10.94
-7.23
-2.51
2.53
7.07
10.41
12.13
12.19
10.88
8.67
6.03
3.30
0.71
-1.59
-3.43
-4.63
-5.03
-4.55
-3.31
-1.58
0.28
1.95
3.29
4.34
5.19
5.84
6.21
6.11
5.41
4.12
2.40
0.54
-1.17
-2.53
-3.50
-4.20
-4.85
-5.69
-6.69
-7.84
-9.11
-10.42
-11.71
-12.93
-14.10
-15.30
-16.68
-18.39
-20.57
-23.21
-26.05
-28.57
-30.01
-29.58
-26.65
-21.00
-12.92
-3.20
7.05
16.69
24.76
30.66
34.19
35.45
34.74
32.45
28.93
24.61
19.95
15.49
11.82
9.37
8.36
8.67
9.91
11.57
13.25
14.70
15.83
16.59
16.88
16.53
15.40
13.49
10.97
8.15
5.37
2.86
0.71
-1.17
-2.97
-4.87
-7.00
-9.35
-11.79
-14.09
-16.05
-17.61
-18.94
-20.34
-22.19
-24.66
-27.68
-30.89
-33.73
-35.54
-35.72
-33.81
-29.59
-23.13
-14.85
-5.50
3.96
12.55
19.54
24.53
27.45
28.46
27.81
25.78
22.68
18.87
14.86
11.20
8.39
6.78
6.47
7.28
8.88
10.87
12.90
14.69
15.99
16.61
16.39
15.28
13.39
10.92
8.19
5.51
3.06
0.93
-0.97
-2.76
-4.55
-6.41
-8.30
-10.15
-11.86
-13.40
-14.83
-16.31
-18.09
-20.39
-23.35
-26.88
-30.57
-33.76
-35.60
-35.34
-32.49
-27.05
-19.48
-10.60
-1.37
7.34
14.85
20.70
24.60
26.44
26.28
24.37
21.15
17.25
13.35
10.07
7.83
6.83
6.97
8.01
9.60
11.44
13.30
15.02
16.47
17.46
17.76
17.16
15.61
13.22
10.32
7.28
4.47
2.05
-0.00
-1.88
-3.81
-5.95
-8.32
-10.85
-13.41
-15.89
-18.27
-20.51
-22.63
-24.68
-26.77
-29.13
-32.01
-35.52
-39.44
-43.07
-45.36
-45.18
-41.79
-35.10
-25.78
-14.98
-3.99
6.11
14.64
21.33
26.09
28.96
30.02
29.43
27.49
24.61
21.36
18.28
15.81
14.23
13.61
13.84
14.70
15.93
17.27
18.58
19.75
20.66
21.15
21.02
20.12
18.38
15.93
13.00
9.90
6.90
4.14
1.68
-0.48
-2.44
-4.32
-6.26
-8.38
-10.76
-13.36
-16.04
-18.64
-21.00
-23.10
-25.06
-27.19
-29.78
-33.04
-36.91
-40.92
-44.27
-45.98
-45.15
-41.31
-34.54
-25.46
-15.13
-4.70
4.82
12.73
18.70
22.67
24.70
24.94
23.62
21.13
17.99
14.86
12.37
10.92
10.65
11.37
12.74
14.40
16.12
17.79
19.36
20.77
21.81
22.21
21.66
20.02
17.38
14.11
10.74
7.76
5.42
3.66
2.15
0.48
-1.69
-4.42
-7.56
-10.81
-13.83
-16.40
-18.45
-20.08
-21.54
-23.18
-25.40
-28.51
-32.56
-37.25
-41.82
-45.20
-46.29
-44.28
-38.96
-30.75
-20.63
-9.80
0.60
9.72
17.05
22.38
25.72
27.19
27.05
25.62
23.37
20.75
18.25
16.25
15.03
14.71
15.25
16.48
18.12
19.91
21.64
23.16
24.36
25.17
25.46
25.12
24.04
22.22
19.73
16.73
13.40
9.94
6.58
3.47
0.75
-1.59
-3.65
-5.63
-7.71
-9.96
-12.27
-14.39
-16.17
-17.57
-18.84
-20.36
-22.52
-25.57
-29.45
-33.79
-37.91
-40.92
-41.87
-40.00
-34.98
-27.02
-16.94
-5.98
4.58
13.65
20.64
25.44
28.26
29.43
29.25
27.94
25.76
23.03
20.24
17.85
16.27
15.65
15.92
16.84
18.13
19.55
20.94
22.17
23.11
23.62
23.56
22.90
21.67
19.97
17.85
15.40
12.67
9.81
7.01
4.48
2.38
0.70
-0.71
-2.06
-3.56
-5.31
-7.30
-9.43
-11.60
-13.70
-15.64
-17.38
-18.98
-20.56
-22.41
-24.82
-28.00
-31.92
-36.22
-40.16
-42.79
-43.17
-40.62
-34.95
-26.57
-16.40
-5.65
4.48
13.07
19.61
23.94
26.18
26.59
25.49
23.26
20.30
17.10
14.15
11.84
10.47
10.12
10.72
12.04
13.80
15.76
17.71
19.50
20.98
21.96
22.26
21.74
20.40
18.40
16.03
13.57
11.22
9.03
6.97
4.98
3.04
1.19
-0.58
-2.26
-3.91
-5.63
-7.46
-9.41
-11.41
-13.40
-15.29
-17.10
-18.88
-20.75
-22.89
-25.48
-28.64
-32.33
-36.22
-39.67
-41.81
-41.73
-38.81
-32.95
-24.64
-14.89
-4.90
4.26
11.86
17.61
21.57
23.93
24.90
24.62
23.24
20.94
18.05
14.99
12.25
10.29
9.37
9.57
10.77
12.68
14.94
17.20
19.07
20.32
20.78
20.44
19.38
17.72
15.63
13.25
10.78
8.40
6.27
4.44
2.85
1.32
-0.36
-2.32
-4.60
-7.05
-9.52
-11.81
-13.83
-15.54
-16.98
-18.28
-19.67
-21.42
-23.81
-27.00
-30.91
-35.20
-39.22
-42.17
-43.22
-41.74
-37.45
-30.57
-21.72
-11.83
-1.92
7.14
14.72
20.50
24.37
26.41
26.75
25.67
23.47
20.62
17.60
14.91
12.94
11.93
11.94
12.85
14.45
16.47
18.64
20.71
22.45
23.66
24.18
23.99
23.13
21.75
20.02
18.16
16.37
14.78
13.50
12.53
11.85
11.30
10.74
10.04
9.15
8.14
7.15
6.33
5.77
5.46
5.30
5.17
4.94
4.53
3.94
3.19
2.34
1.40
0.41
-0.60
-1.60
-2.58
-3.59
-4.73
-6.11
-7.78
-9.65
-11.52
-13.21
-14.63
-15.85
-17.10
-18.64
-20.63
-23.05
-25.73
-28.43
-30.94
-33.16
-35.10
-36.89
-38.75
-40.96
-43.76
-47.30
-51.45
-55.69
-59.14
-60.73
-59.54
-55.05
-47.39
-37.25
-25.74
-14.05
-3.22
5.97
13.09
17.98
20.70
21.48
20.69
18.75
16.14
13.30
10.64
8.51
7.15
6.67
7.04
8.13
9.76
11.81
14.17
16.71
19.23
21.42
22.89
23.28
22.38
20.26
17.22
13.72
10.23
7.14
4.65
2.77
1.35
0.16
-1.05
-2.49
-4.21
-6.19
-8.36
-10.59
-12.82
-15.06
-17.37
-19.87
-22.70
-25.95
-29.55
-33.21
-36.37
-38.26
-38.08
-35.29
-29.80
-22.11
-13.14
-3.95
4.53
11.74
17.42
21.55
24.16
25.31
25.05
23.55
21.10
18.11
15.04
12.33
10.38
9.44
9.66
10.94
13.03
15.47
17.77
19.54
20.52
20.69
20.15
19.05
17.56
15.79
13.78
11.57
9.17
6.61
3.88
1.02
-1.95
-4.95
-7.89
-10.66
-13.22
-15.60
-17.99
-20.64
-23.82
-27.66
-32.00
-36.33
-39.85
-41.69
-41.13
-37.89
-32.14
-24.55
-16.04
-7.51
0.30
6.92
12.12
15.82
17.96
18.49
17.47
15.10
11.80
8.22
5.02
2.82
1.98
2.58
4.45
7.20
10.33
13.29
15.61
16.94
17.20
16.48
15.08
13.28
11.28
9.15
6.81
4.21
1.43
-1.34
-3.82
-5.87
-7.48
-8.88
-10.41
-12.38
-14.96
-18.16
-21.80
-25.64
-29.31
-32.34
-34.17
-34.16
-31.75
-26.71
-19.26
-10.10
-0.30
8.99
16.87
22.85
26.86
29.09
29.77
29.08
27.14
24.10
20.31
16.36
12.99
10.86
10.37
11.50
13.87
16.85
19.81
22.19
23.65
24.02
23.28
21.57
19.11
16.21
13.17
10.18
7.33
4.58
1.87
-0.80
-3.33
-5.60
-7.52
-9.18
-10.78
-12.64
-15.11
-18.39
-22.53
-27.30
-32.18
-36.30
-38.66
-38.31
-34.66
-27.75
-18.28
-7.44
3.39
13.05
20.82
26.42
29.94
31.61
31.70
30.42
28.05
24.97
21.68
18.77
16.77
16.00
16.52
18.12
20.41
22.95
25.30
27.12
28.14
28.20
27.28
25.47
23.01
20.20
17.30
14.47
11.72
8.98
6.14
3.18
0.20
-2.59
-5.01
-7.00
-8.68
-10.31
-12.19
-14.58
-17.61
-21.25
-25.32
-29.48
-33.13
-35.52
-35.82
-33.36
-27.94
-19.96
-10.37
-0.42
8.71
16.20
21.71
25.26
27.11
27.47
26.51
24.36
21.29
17.76
14.40
11.90
10.76
11.11
12.74
15.14
17.74
20.06
21.83
22.95
23.41
23.21
22.34
20.79
18.62
16.00
13.13
10.30
7.75
5.60
3.81
2.21
0.60
-1.16
-3.11
-5.15
-7.16
-9.09
-10.95
-12.89
-15.09
-17.72
-20.85
-24.43
-28.21
-31.67
-34.11
-34.75
-32.94
-28.42
-21.43
-12.71
-3.28
5.77
13.54
19.48
23.42
25.50
26.02
25.34
23.77
21.58
19.06
16.49
14.25
12.69
12.05
12.38
13.53
15.21
17.09
18.84
20.22
21.02
21.07
20.29
18.75
16.62
14.17
11.66
9.26
7.02
4.95
3.05
1.33
-0.17
-1.45
-2.61
-3.83
-5.28
-7.09
-9.24
-11.59
-13.92
-15.99
-17.70
-19.07
-20.27
-21.57
-23.23
-25.44
-28.23
-31.38
-34.47
-36.87
-37.88
-36.83
-33.33
-27.35
-19.35
-10.15
-0.78
7.80
14.86
20.04
23.26
24.65
24.45
22.95
20.51
17.58
14.62
12.09
10.35
9.53
9.57
10.27
11.35
12.60
13.90
15.20
16.41
17.40
17.91
17.72
16.69
14.89
12.58
10.08
7.69
5.52
3.54
1.70
-0.06
-1.70
-3.18
-4.53
-5.87
-7.37
-9.17
-11.25
-13.48
-15.64
-17.55
-19.13
-20.42
-21.53
-22.59
-23.79
-25.33
-27.40
-30.10
-33.29
-36.58
-39.32
-40.74
-40.16
-37.20
-31.87
-24.61
-16.18
-7.51
0.54
7.34
12.49
15.89
17.61
17.83
16.78
14.67
11.82
8.64
5.65
3.38
2.22
2.32
3.53
5.51
7.80
10.01
11.85
13.09
13.59
13.25
12.04
10.07
7.62
5.09
2.85
1.15
-0.01
-0.81
-1.52
-2.37
-3.48
-4.84
-6.38
-7.99
-9.58
-11.12
-12.62
-14.13
-15.69
-17.34
-19.07
-20.83
-22.59
-24.39
-26.40
-28.82
-31.83
-35.38
-39.07
-42.21
-43.94
-43.48
-40.41
-34.78
-27.17
-18.48
-9.69
-1.64
5.10
10.27
13.83
15.90
16.67
16.38
15.31
13.76
12.05
10.47
9.22
8.45
8.21
8.48
9.19
10.23
11.45
12.70
13.82
14.69
15.17
15.18
14.65
13.57
12.03
10.19
8.28
6.55
5.15
4.10
3.23
2.30
1.11
-0.40
-2.09
-3.76
-5.19
-6.38
-7.47
-8.74
-10.40
-12.53
-15.01
-17.61
-20.12
-22.40
-24.46
-26.42
-28.51
-30.98
-34.12
-38.00
-42.39
-46.63
-49.68
-50.40
-47.94
-42.06
-33.29
-22.80
-11.99
-2.08
6.17
12.51
17.06
20.05
21.69
22.18
21.72
20.57
19.09
17.66
16.56
15.94
15.81
16.05
16.58
17.35
18.40
19.77
21.42
23.16
24.70
25.66
25.75
24.87
23.14
20.90
18.55
16.39
14.56
12.98
11.45
9.75
7.78
5.58
3.36
1.36
-0.26
-1.52
-2.57
-3.68
-5.08
-6.89
-9.15
-11.80
-14.72
-17.74
-20.66
-23.31
-25.66
-27.84
-30.22
-33.23
-37.19
-42.06
-47.30
-51.93
-54.80
-54.83
-51.40
-44.50
-34.75
-23.27
-11.37
-0.24
9.31
16.86
22.38
26.01
27.92
28.30
27.37
25.45
23.02
20.65
18.84
17.96
18.16
19.36
21.36
23.89
26.66
29.37
31.77
33.63
34.81
35.24
34.89
33.82
32.11
29.90
27.36
24.66
21.97
19.37
16.97
14.78
12.81
10.99
9.24
7.46
5.58
3.63
1.70
-0.13
-1.87
-3.64
-5.65
-8.05
-10.88
-13.99
-17.16
-20.16
-22.90
-25.39
-27.78
-30.29
-33.17
-36.67
-40.98
-46.05
-51.47
-56.39
-59.66
-60.12
-56.99
-50.12
-40.06
-27.92
-15.07
-2.79
7.95
16.59
22.96
27.14
29.40
30.01
29.31
27.67
25.50
23.27
21.44
20.34
20.18
20.99
22.66
25.06
28.01
31.27
34.53
37.38
39.42
40.35
40.03
38.61
36.36
33.65
30.81
28.10
25.64
23.44
21.41
19.42
17.30
14.95
12.38
9.66
6.96
4.41
2.09
-0.07
-2.21
-4.53
-7.19
-10.23
-13.56
-16.93
-20.05
-22.73
-24.91
-26.74
-28.58
-30.87
-34.00
-38.17
-43.24
-48.64
-53.47
-56.58
-56.89
-53.65
-46.72
-36.59
-24.35
-11.34
1.15
12.07
20.79
26.98
30.64
31.96
31.35
29.35
26.58
23.65
21.11
19.36
18.73
19.42
21.50
24.90
29.31
34.26
39.21
43.69
47.32
49.84
51.03
50.74
48.92
45.75
41.71
37.41
33.45
30.16
27.49
25.14
22.64
19.68
16.15
12.21
8.16
4.35
1.00
-1.83
-4.29
-6.69
-9.33
-12.37
-15.74
-19.11
-22.10
-24.45
-26.19
-27.65
-29.39
-31.93
-35.65
-40.63
-46.57
-52.84
-58.52
-62.53
-63.88
-61.88
-56.35
-47.71
-36.89
-25.08
-13.48
-3.09
5.44
11.76
15.84
17.84
18.10
17.05
15.13
12.80
10.47
8.51
7.19
6.74
7.27
8.77
11.11
14.08
17.44
20.93
24.33
27.40
29.91
31.63
32.38
32.08
30.74
28.57
25.79
22.72
19.61
16.62
13.79
11.07
8.34
5.52
2.66
-0.10
-2.53
-4.48
-5.99
-7.33
-8.87
-10.93
-13.60
-16.67
-19.73
-22.42
-24.58
-26.35
-28.09
-30.27
-33.26
-37.21
-41.94
-46.93
-51.31
-54.02
-54.06
-50.73
-43.94
-34.22
-22.62
-10.37
1.34
11.63
19.95
26.04
29.84
31.48
31.23
29.50
26.81
23.65
20.48
17.65
15.43
13.99
13.43
13.79
15.04
17.07
19.70
22.67
25.66
28.29
30.21
31.10
30.82
29.41
27.13
24.35
21.48
18.87
16.69
14.95
13.53
12.22
10.82
9.22
7.40
5.39
3.15
0.54
-2.68
-6.72
-11.61
-17.11
-22.78
-28.10
-32.74
-36.59
-39.79
-42.56
-45.13
-47.70
-50.46
-53.57
-57.08
-60.70
-63.73
-65.10
-63.70
-58.81
-50.42
-39.25
-26.52
-13.59
-1.54
8.93
17.47
24.01
28.61
31.43
32.71
32.82
32.19
31.25
30.38
29.83
29.76
30.20
31.12
32.40
33.86
35.31
36.57
37.49
37.93
37.76
36.81
34.98
32.19
28.51
24.13
19.33
14.39
9.53
4.82
0.30
-3.98
-7.91
-11.32
-14.09
-16.27
-18.07
-19.78
-21.64
-23.79
-26.18
-28.71
-31.24
-33.64
-35.71
-37.28
-38.20
-38.50
-38.42
-38.41
-38.95
-40.40
-42.75
-45.57
-48.07
-49.22
-48.02
-43.80
-36.37
-26.19
-14.22
-1.69
10.18
20.54
28.98
35.49
40.27
43.57
45.56
46.35
46.03
44.74
42.68
40.05
37.05
33.86
30.64
27.64
25.12
23.38
22.61
22.78
23.63
24.65
25.26
24.99
23.57
21.03
17.69
14.05
10.64
7.83
5.75
4.26
3.10
2.06
1.08
0.30
-0.13
-0.17
-0.00
0.01
-0.49
-1.71
-3.60
-5.91
-8.33
-10.60
-12.61
-14.39
-16.13
-18.08
-20.55
-23.71
-27.51
-31.51
-34.89
-36.60
-35.73
-31.75
-24.75
-15.43
-4.89
5.69
15.29
23.22
29.10
32.78
34.31
33.82
31.61
28.08
23.76
19.19
14.92
11.39
8.93
7.71
7.71
8.75
10.47
12.50
14.45
16.05
17.17
17.68
17.53
16.64
14.96
12.57
9.66
6.53
3.49
0.69
-1.86
-4.29
-6.73
-9.23
-11.77
-14.26
-16.63
-18.88
-21.02
-23.08
-25.02
-26.82
-28.51
-30.23
-32.21
-34.76
-38.10
-42.22
-46.74
-50.89
-53.61
-53.84
-50.86
-44.53
-35.36
-24.40
-12.86
-1.82
7.99
16.22
22.75
27.53
30.46
31.46
30.51
27.85
24.00
19.70
15.77
12.86
11.25
10.87
11.39
12.43
13.68
15.05
16.56
18.19
19.82
21.13
21.78
21.45
20.02
17.59
14.45
10.97
7.51
4.28
1.35
-1.42
-4.24
-7.36
-10.86
-14.66
-18.49
-22.06
-25.16
-27.82
-30.31
-32.98
-36.19
-40.12
-44.77
-49.85
-54.77
-58.67
-60.51
-59.36
-54.69
-46.61
-35.87
-23.69
-11.36
0.04
9.85
17.76
23.62
27.41
29.10
28.85
27.00
24.09
20.75
17.59
15.09
13.55
13.13
13.81
15.47
17.91
20.83
23.89
26.75
29.02
30.37
30.52
29.38
27.01
23.69
19.84
15.88
12.13
8.69
5.53
2.44
-0.77
-4.21
-7.84
-11.52
-15.08
-18.41
-21.55
-24.67
-28.01
-31.76
-36.02
-40.67
-45.45
-49.83
-53.12
-54.46
-53.01
-48.25
-40.20
-29.49
-17.34
-5.11
6.00
15.27
22.48
27.72
31.22
33.10
33.43
32.29
29.92
26.76
23.38
20.42
18.38
17.52
17.89
19.32
21.52
24.13
26.81
29.21
30.96
31.76
31.35
29.69
26.91
23.37
19.52
15.75
12.33
9.23
6.27
3.23
-0.07
-3.59
-7.14
-10.46
-13.35
-15.83
-18.07
-20.47
-23.44
-27.28
-32.00
-37.27
-42.29
-46.03
-47.37
-45.47
-39.99
-31.27
-20.24
-8.18
3.63
14.18
22.89
29.57
34.27
37.15
38.32
37.87
35.94
32.77
28.84
24.80
21.39
19.20
18.57
19.41
21.29
23.63
25.90
27.78
29.16
29.98
30.19
29.64
28.17
25.74
22.51
18.84
15.07
11.45
8.07
4.86
1.77
-1.18
-3.91
-6.31
-8.38
-10.24
-12.09
-14.14
-16.60
-19.63
-23.41
-28.00
-33.33
-38.93
-43.96
-47.26
-47.71
-44.59
-37.91
-28.46
-17.57
-6.69
2.99
10.76
16.40
19.95
21.52
21.17
18.96
15.03
9.78
3.86
-1.87
-6.51
-9.33
-9.95
-8.38
-5.03
-0.58
4.17
8.53
12.04
14.53
16.08
16.88
17.11
16.89
16.29
15.39
14.30
13.14
12.02
10.98
10.05
9.30
8.94
9.19
10.24
12.00
14.08
15.90
16.83
16.46
14.66
11.47
7.06
1.62
-4.55
-10.90
-16.62
-20.68
-22.14
-20.44
-15.61
-8.23
0.76
10.23
19.05
26.14
30.50
31.32
28.10
20.84
10.06
-3.19
-17.51
-31.27
-42.87
-50.97
-54.72
-54.01
-49.50
-42.44
-34.23
-25.98
-18.18
-10.74
-3.27
4.57
12.75
20.97
28.75
35.74
41.79
46.90
51.16
54.58
57.16
58.91
59.85
59.96
59.11
56.99
53.19
47.34
39.37
29.56
18.51
7.01
-4.25
-14.84
-24.67
-34.00
-43.28
-52.87
-62.86
-72.84
-81.88
-88.77
-92.28
-91.54
-86.34
-77.19
-65.20
-51.76
-38.27
-25.87
-15.33
-7.02
-0.99
2.96
5.18
6.06
6.02
5.51
4.98
4.81
5.29
6.57
8.58
11.16
14.10
17.22
20.35
23.33
25.91
27.75
28.51
27.89
25.85
22.60
18.55
14.25
10.18
6.70
4.03
2.17
0.96
0.05
-0.93
-2.35
-4.37
-6.94
-9.83
-12.72
-15.40
-17.85
-20.21
-22.79
-25.86
-29.64
-34.10
-38.97
-43.67
-47.37
-49.13
-48.17
-44.04
-36.85
-27.18
-16.00
-4.43
6.51
16.01
23.54
28.85
31.95
33.00
32.36
30.44
27.73
24.73
21.86
19.49
17.84
17.05
17.12
17.99
19.54
21.55
23.73
25.69
26.97
27.20
26.19
24.01
21.01
17.67
14.46
11.62
9.13
6.77
4.24
1.35
-1.86
-5.18
-8.37
-11.25
-13.86
-16.37
-19.02
-22.05
-25.62
-29.77
-34.35
-38.93
-42.83
-45.12
-44.85
-41.36
-34.52
-24.89
-13.60
-2.01
8.63
17.49
24.27
29.01
31.92
33.16
32.79
30.83
27.50
23.28
18.91
15.19
12.71
11.67
11.88
12.92
14.34
15.79
17.07
18.07
18.65
18.62
17.80
16.09
13.53
10.34
6.82
3.25
-0.13
-3.25
-6.16
-8.99
-11.84
-14.74
-17.63
-20.41
-23.10
-25.84
-28.87
-32.39
-36.32
-40.17
-43.10
-44.09
-42.33
-37.50
-29.86
-20.24
-9.69
0.73
10.23
18.28
24.55
28.88
31.18
31.50
30.06
27.26
23.66
19.85
16.37
13.64
11.92
11.33
11.83
13.19
15.07
17.06
18.77
19.93
20.38
20.06
18.97
17.17
14.81
12.08
9.18
6.30
3.48
0.70
-2.14
-5.06
-7.98
-10.76
-13.25
-15.45
-17.50
-19.73
-22.49
-26.09
-30.63
-35.93
-41.47
-46.45
-49.91
-51.00
-49.15
-44.28
-36.77
-27.42
-17.22
-7.18
1.89
9.43
15.18
19.01
20.94
21.04
19.50
16.72
13.30
9.95
7.38
6.08
6.21
7.60
9.87
12.62
15.50
18.26
20.73
22.73
24.06
24.57
24.13
22.77
20.65
18.04
15.27
12.62
10.24
8.11
6.06
3.84
1.25
-1.77
-5.15
-8.65
-12.02
-15.04
-17.66
-20.02
-22.44
-25.34
-29.08
-33.78
-39.20
-44.65
-49.17
-51.69
-51.36
-47.76
-40.97
-31.58
-20.54
-8.98
1.99
11.50
18.98
24.23
27.36
28.61
28.34
26.86
24.51
21.70
18.86
16.46
14.86
14.28
14.79
16.23
18.37
20.84
23.26
25.21
26.38
26.61
25.92
24.52
22.68
20.67
18.63
16.59
14.48
12.25
9.89
7.47
5.08
2.79
0.60
-1.59
-3.89
-6.42
-9.22
-12.17
-15.11
-17.86
-20.35
-22.66
-24.94
-27.40
-30.24
-33.62
-37.56
-41.96
-46.40
-50.18
-52.33
-51.86
-48.06
-40.77
-30.56
-18.54
-6.04
5.67
15.72
23.65
29.35
32.90
34.49
34.35
32.82
30.35
27.45
24.64
22.38
20.91
20.37
20.70
21.77
23.38
25.28
27.23
28.96
30.23
30.83
30.64
29.64
27.93
25.70
23.17
20.52
17.87
15.28
12.74
10.22
7.74
5.33
3.06
0.98
-0.89
-2.60
-4.26
-6.00
-7.97
-10.26
-12.87
-15.69
-18.59
-21.38
-23.98
-26.43
-28.92
-31.75
-35.23
-39.53
-44.49
-49.55
-53.76
-55.99
-55.23
-50.88
-42.96
-32.11
-19.44
-6.28
6.14
16.82
25.15
30.90
34.14
35.16
34.32
32.05
28.80
25.05
21.30
18.05
15.70
14.46
14.34
15.18
16.71
18.66
20.73
22.63
24.05
24.71
24.41
23.12
21.03
18.48
15.84
13.40
11.25
9.33
7.52
5.64
3.64
1.53
-0.58
-2.56
-4.30
-5.81
-7.21
-8.71
-10.52
-12.71
-15.22
-17.83
-20.29
-22.41
-24.22
-25.89
-27.73
-30.05
-33.07
-36.82
-41.07
-45.27
-48.59
-50.10
-48.96
-44.67
-37.27
-27.31
-15.79
-3.86
7.37
17.04
24.63
29.90
32.87
33.68
32.62
30.08
26.57
22.73
19.20
16.54
15.08
14.94
15.95
17.84
20.22
22.69
24.93
26.61
27.57
27.70
27.03
25.63
23.65
21.22
18.52
15.72
12.93
10.22
7.57
4.94
2.29
-0.34
-2.86
-5.17
-7.23
-9.14
-11.03
-13.06
-15.32
-17.79
-20.40
-23.04
-25.59
-28.00
-30.27
-32.53
-35.01
-38.02
-41.82
-46.47
-51.65
-56.59
-60.21
-61.34
-59.08
-53.12
-43.79
-32.02
-19.04
-6.10
5.82
16.03
24.17
30.06
33.68
35.12
34.61
32.56
29.55
26.20
23.10
20.69
19.22
18.75
19.18
20.34
22.02
24.01
26.09
27.99
29.49
30.34
30.39
29.57
27.97
25.78
23.25
20.63
18.11
15.76
13.57
11.47
9.38
7.23
5.01
2.77
0.54
-1.61
-3.64
-5.61
-7.59
-9.73
-12.17
-14.98
-18.10
-21.37
-24.57
-27.52
-30.19
-32.75
-35.52
-38.90
-43.16
-48.30
-53.84
-58.90
-62.27
-62.79
-59.65
-52.70
-42.54
-30.31
-17.45
-5.29
5.25
13.68
19.95
24.22
26.66
27.39
26.47
24.03
20.41
16.14
11.92
8.42
6.13
5.26
5.73
7.36
9.89
13.12
16.81
20.68
24.35
27.38
29.44
30.40
30.44
29.92
29.18
28.42
27.56
26.35
24.55
22.11
19.21
16.17
13.24
10.49
7.77
4.80
1.44
-2.30
-6.18
-9.88
-13.11
-15.74
-17.81
-19.56
-21.34
-23.54
-26.54
-30.53
-35.45
-40.90
-46.07
-49.92
-51.36
-49.56
-44.18
-35.51
-24.41
-12.16
-0.07
10.75
19.62
26.27
30.78
33.37
34.28
33.73
31.91
29.06
25.55
21.88
18.60
16.17
14.92
14.90
15.95
17.75
19.92
22.04
23.74
24.76
24.98
24.42
23.21
21.53
19.47
17.10
14.43
11.52
8.51
5.60
2.94
0.56
-1.69
-4.04
-6.70
-9.71
-12.96
-16.19
-19.18
-21.78
-23.98
-25.95
-27.94
-30.29
-33.35
-37.31
-42.12
-47.37
-52.29
-55.81
-56.84
-54.57
-48.71
-39.59
-28.14
-15.58
-3.19
7.96
17.19
24.15
28.71
30.94
30.99
29.19
26.05
22.28
18.65
15.86
14.36
14.34
15.71
18.19
21.39
24.87
28.17
30.84
32.47
32.83
31.90
29.87
27.08
23.90
20.56
17.14
13.60
9.83
5.85
1.72
-2.37
-6.28
-9.92
-13.30
-16.46
-19.48
-22.48
-25.62
-29.13
-33.20
-37.81
-42.62
-46.92
-49.77
-50.26
-47.77
-42.22
-33.99
-23.81
-12.63
-1.35
9.22
18.39
25.66
30.69
33.37
33.78
32.25
29.25
25.36
21.21
17.43
14.55
12.92
12.67
13.64
15.49
17.71
19.82
21.41
22.24
22.22
21.32
19.59
17.12
14.05
10.60
7.00
3.50
0.22
-2.89
-6.02
-9.35
-12.96
-16.73
-20.36
-23.56
-26.22
-28.49
-30.78
-33.62
-37.33
-41.94
-46.99
-51.64
-54.83
-55.50
-52.92
-46.85
-37.65
-26.21
-13.71
-1.34
9.91
19.42
26.85
32.13
35.33
36.64
36.33
34.75
32.30
29.44
26.60
24.18
22.49
21.73
21.93
22.93
24.45
26.15
27.74
28.96
29.62
29.59
28.73
27.01
24.49
21.33
17.79
14.17
10.71
7.61
4.90
2.42
-0.08
-2.88
-6.14
-9.78
-13.45
-16.77
-19.44
-21.50
-23.29
-25.34
-28.13
-31.93
-36.65
-41.87
-46.82
-50.51
-51.92
-50.26
-45.19
-36.99
-26.45
-14.70
-2.88
8.10
17.61
25.30
31.00
34.67
36.39
36.38
34.93
32.45
29.38
26.20
23.41
21.42
20.50
20.71
21.81
23.43
25.12
26.55
27.52
27.96
27.83
27.10
25.70
23.59
20.82
17.56
14.10
10.74
7.70
5.09
2.83
0.73
-1.44
-3.85
-6.57
-9.54
-12.62
-15.63
-18.45
-21.02
-23.40
-25.74
-28.26
-31.19
-34.76
-39.02
-43.69
-48.11
-51.26
-52.01
-49.49
-43.39
-34.14
-22.81
-10.75
0.76
10.85
19.09
25.41
29.86
32.52
33.49
32.89
31.03
28.33
25.30
22.43
20.10
18.53
17.83
17.99
18.88
20.28
21.86
23.34
24.44
25.02
24.98
24.23
22.66
20.26
17.14
13.62
10.16
7.12
4.65
2.58
0.50
-2.00
-5.11
-8.72
-12.46
-15.90
-18.73
-20.89
-22.56
-24.08
-25.83
-28.14
-31.15
-34.84
-39.00
-43.21
-46.82
-49.04
-48.99
-45.99
-39.78
-30.70
-19.69
-8.07
2.86
12.14
19.34
24.44
27.67
29.22
29.18
27.67
24.96
21.58
18.17
15.36
13.58
12.87
13.05
13.81
14.89
16.18
17.64
19.20
20.68
21.73
21.96
21.08
19.04
16.05
12.53
8.92
5.57
2.57
-0.19
-2.90
-5.73
-8.72
-11.81
-14.86
-17.76
-20.46
-23.03
-25.63
-28.49
-31.76
-35.43
-39.21
-42.47
-44.38
-44.09
-41.00
-34.99
-26.47
-16.32
-5.61
4.61
13.52
20.65
25.79
28.93
30.18
29.74
27.88
24.99
21.56
18.09
15.05
12.77
11.44
11.07
11.55
12.66
14.11
15.53
16.58
17.00
16.67
15.63
13.99
11.89
9.42
6.65
3.66
0.60
-2.36
-5.03
-7.39
-9.52
-11.64
-14.02
-16.88
-20.33
-24.38
-28.89
-33.50
-37.64
-40.53
-41.32
-39.37
-34.44
-26.83
-17.33
-7.02
3.03
11.95
19.20
24.56
28.01
29.64
29.57
27.97
25.09
21.31
17.15
13.22
10.09
8.16
7.53
8.01
9.21
10.68
12.08
13.24
14.10
14.61
14.61
13.86
12.11
9.25
5.45
1.15
-3.06
-6.71
-9.55
-11.66
-13.38
-15.10
-17.21
-19.95
-23.42
-27.59
-32.27
-37.01
-41.13
-43.79
-44.11
-41.52
-35.87
-27.59
-17.55
-6.83
3.46
12.42
19.45
24.26
26.80
27.22
25.81
22.98
19.24
15.20
11.50
8.70
7.18
7.06
8.19
10.20
12.61
14.93
16.76
17.87
18.14
17.59
16.32
14.44
12.03
9.11
5.77
2.16
-1.48
-4.88
-7.85
-10.38
-12.64
-14.93
-17.53
-20.66
-24.37
-28.60
-33.13
-37.58
-41.34
-43.63
-43.59
-40.64
-34.61
-25.95
-15.53
-4.48
6.14
15.51
23.11
28.68
32.12
33.49
32.91
30.71
27.39
23.59
19.96
17.06
15.24
14.58
14.97
16.18
17.90
19.85
21.76
23.35
24.35
24.52
23.68
21.82
19.10
15.84
12.46
9.33
6.66
4.42
2.37
0.19
-2.40
-5.44
-8.74
-12.01
-14.95
-17.43
-19.52
-21.44
-23.44
-25.75
-28.55
-31.96
-35.97
-40.34
-44.51
-47.59
-48.56
-46.58
-41.27
-32.90
-22.32
-10.75
0.58
10.67
18.91
25.02
29.01
31.00
31.25
30.07
27.89
25.19
22.48
20.18
18.61
17.88
18.01
18.92
20.48
22.50
24.72
26.82
28.45
29.28
29.16
28.08
26.20
23.80
21.17
18.55
16.07
13.73
11.46
9.15
6.73
4.21
1.67
-0.75
-2.97
-4.99
-6.90
-8.83
-10.87
-13.03
-15.22
-17.36
-19.37
-21.27
-23.19
-25.26
-27.67
-30.55
-33.99
-37.97
-42.33
-46.56
-49.89
-51.33
-49.98
-45.28
-37.31
-26.78
-14.90
-3.02
7.67
16.42
22.88
27.05
29.10
29.26
27.81
25.09
21.57
17.81
14.37
11.75
10.23
9.87
10.59
12.19
14.43
17.01
19.55
21.65
22.96
23.24
22.51
20.93
18.77
16.27
13.58
10.83
8.08
5.44
3.04
0.96
-0.79
-2.30
-3.74
-5.32
-7.16
-9.35
-11.85
-14.49
-17.10
-19.49
-21.56
-23.37
-25.05
-26.82
-28.93
-31.60
-34.92
-38.82
-42.92
-46.53
-48.71
-48.52
-45.28
-38.82
-29.62
-18.63
-7.08
3.89
13.39
20.91
26.25
29.46
30.75
30.38
28.70
26.08
22.92
19.66
16.69
14.38
13.00
12.69
13.46
15.15
17.47
19.96
22.12
23.51
23.87
23.22
21.78
19.89
17.82
15.71
13.55
11.31
8.97
6.56
4.16
1.83
-0.41
-2.50
-4.45
-6.23
-7.87
-9.52
-11.40
-13.72
-16.55
-19.77
-23.06
-26.11
-28.72
-30.96
-33.11
-35.59
-38.77
-42.76
-47.35
-51.91
-55.52
-57.14
-55.88
-51.29
-43.46
-33.11
-21.31
-9.27
1.97
11.69
19.49
25.22
28.83
30.40
30.10
28.26
25.39
22.07
18.93
16.46
14.95
14.48
14.97
16.26
18.13
20.38
22.72
24.87
26.50
27.36
27.31
26.41
24.82
22.84
20.73
18.67
16.74
14.83
12.80
10.47
7.82
4.96
2.15
-0.38
-2.50
-4.25
-5.83
-7.48
-9.36
-11.59
-14.16
-17.02
-20.07
-23.16
-26.16
-28.98
-31.64
-34.40
-37.57
-41.44
-45.98
-50.75
-54.90
-57.32
-57.04
-53.39
-46.32
-36.36
-24.51
-11.99
0.04
10.67
19.41
26.06
30.67
33.36
34.25
33.47
31.27
28.07
24.52
21.31
19.00
17.87
17.81
18.55
19.75
21.21
22.87
24.70
26.57
28.20
29.19
29.26
28.30
26.49
24.16
21.68
19.27
17.00
14.81
12.57
10.24
7.78
5.26
2.79
0.42
-1.80
-3.93
-6.09
-8.39
-10.93
-13.66
-16.50
-19.31
-21.97
-24.44
-26.79
-29.13
-31.60
-34.37
-37.59
-41.41
-45.83
-50.56
-54.93
-57.94
-58.47
-55.65
-49.14
-39.28
-27.02
-13.64
-0.51
11.23
20.77
27.70
31.97
33.82
33.71
32.20
29.81
27.04
24.25
21.72
19.68
18.30
17.71
17.99
19.19
21.23
23.90
26.83
29.52
31.46
32.28
31.91
30.49
28.36
25.90
23.38
20.91
18.49
16.06
13.54
10.91
8.19
5.49
2.97
0.74
-1.13
-2.75
-4.30
-6.03
-8.11
-10.59
-13.38
-16.27
-19.07
-21.67
-24.09
-26.50
-29.20
-32.54
-36.71
-41.66
-46.89
-51.48
-54.21
-53.92
-49.91
-42.12
-31.27
-18.66
-5.75
6.18
16.24
24.03
29.49
32.71
33.85
33.12
30.75
27.12
22.74
18.16
13.98
10.71
8.75
8.27
9.23
11.39
14.33
17.55
20.56
22.90
24.26
24.46
23.49
21.54
18.92
15.97
12.96
10.08
7.34
4.77
2.34
0.06
-2.07
-4.15
-6.32
-8.74
-11.48
-14.48
-17.50
-20.29
-22.71
-24.83
-26.93
-29.42
-32.66
-36.83
-41.74
-46.85
-51.36
-54.30
-54.78
-52.16
-46.18
-37.05
-25.44
-12.41
0.82
13.01
23.21
30.82
35.71
38.06
38.25
36.67
33.74
29.90
25.64
21.56
18.24
16.09
15.29
15.75
17.19
19.23
21.53
23.80
25.79
27.25
27.96
27.68
26.29
23.80
20.41
16.49
12.48
8.75
5.55
2.85
0.40
-2.15
-5.09
-8.54
-12.36
-16.24
-19.89
-23.12
-25.96
-28.68
-31.67
-35.33
-39.92
-45.37
-51.21
-56.53
-60.11
-60.80
-57.82
-50.98
-40.81
-28.38
-15.00
-1.93
9.82
19.61
27.08
32.15
34.87
35.43
34.11
31.33
27.63
23.63
19.95
17.08
15.31
14.69
15.11
16.38
18.26
20.46
22.61
24.27
24.99
24.48
22.67
19.79
16.25
12.55
9.03
5.86
2.96
0.08
-3.06
-6.65
-10.62
-14.77
-18.79
-22.48
-25.85
-29.07
-32.41
-36.14
-40.44
-45.44
-51.16
-57.41
-63.64
-68.88
-71.80
-71.17
-66.24
-57.09
-44.58
-30.10
-15.06
-0.61
12.54
24.05
33.71
41.39
46.99
50.56
52.32
52.65
52.04
50.94
49.71
48.59
47.71
47.16
47.01
47.28
47.94
48.82
49.61
49.90
49.22
47.24
43.86
39.23
33.81
28.11
22.65
17.71
13.36
9.47
5.83
2.26
-1.28
-4.72
-7.94
-10.88
-13.59
-16.26
-19.25
-22.89
-27.42
-32.80
-38.59
-43.91
-47.62
-48.52
-45.75
-39.10
-29.06
-16.76
-3.63
8.91
19.81
28.45
34.66
38.52
40.20
39.95
38.06
34.93
31.05
27.04
23.50
20.88
19.45
19.23
20.05
21.64
23.66
25.79
27.71
29.05
29.47
28.72
26.73
23.68
19.96
16.07
12.45
9.37
6.85
4.73
2.72
0.54
-1.98
-4.83
-7.83
-10.69
-13.15
-15.12
-16.74
-18.37
-20.42
-23.26
-27.02
-31.60
-36.63
-41.50
-45.36
-47.25
-46.30
-41.96
-34.26
-23.89
-12.06
-0.16
10.57
19.33
25.79
30.00
32.15
32.45
31.08
28.30
24.52
20.36
16.52
13.65
12.16
12.10
13.20
15.03
17.14
19.21
21.06
22.51
23.41
23.57
22.84
21.18
18.71
15.64
12.24
8.75
5.41
2.35
-0.33
-2.66
-4.74
-6.72
-8.74
-10.81
-12.89
-14.85
-16.62
-18.24
-19.84
-21.62
-23.80
-26.57
-30.05
-34.15
-38.51
-42.42
-44.91
-45.00
-41.99
-35.73
-26.71
-15.92
-4.58
6.20
15.55
22.97
28.17
31.07
31.74
30.41
27.51
23.62
19.44
15.64
12.75
11.11
10.81
11.77
13.75
16.43
19.44
22.35
24.72
26.19
26.52
25.66
23.72
20.94
17.61
14.00
10.35
6.83
3.56
0.61
-2.01
-4.32
-6.44
-8.51
-10.70
-13.11
-15.77
-18.61
-21.44
-24.07
-26.35
-28.31
-30.12
-32.08
-34.54
-37.76
-41.82
-46.51
-51.24
-55.07
-56.94
-55.88
-51.33
-43.38
-32.75
-20.61
-8.29
3.05
12.64
20.09
25.36
28.58
29.92
29.60
27.89
25.18
21.99
18.89
16.45
15.06
14.86
15.74
17.40
19.46
21.58
23.47
24.93
25.84
26.15
25.87
25.03
23.69
21.87
19.66
17.15
14.49
11.86
9.42
7.25
5.33
3.54
1.73
-0.18
-2.22
-4.30
-6.32
-8.20
-9.96
-11.67
-13.47
-15.51
-17.80
-20.28
-22.77
-25.07
-27.06
-28.77
-30.37
-32.17
-34.50
-37.63
-41.67
-46.45
-51.48
-55.94
-58.77
-58.96
-55.82
-49.20
-39.61
-28.09
-15.91
-4.23
6.08
14.59
21.20
25.96
29.01
30.44
30.35
28.94
26.54
23.63
20.77
18.46
17.05
16.65
17.17
18.42
20.14
22.11
24.12
25.95
27.37
28.12
28.00
26.94
25.04
22.59
19.92
17.34
15.03
12.98
11.08
9.25
7.46
5.80
4.34
3.12
2.02
0.88
-0.48
-2.11
-3.93
-5.77
-7.46
-8.95
-10.36
-11.87
-13.68
-15.91
-18.51
-21.31
-24.09
-26.63
-28.83
-30.76
-32.63
-34.78
-37.58
-41.28
-45.91
-51.09
-56.09
-59.87
-61.40
-59.86
-54.89
-46.71
-36.04
-23.92
-11.52
0.12
10.18
18.14
23.79
27.19
28.60
28.41
27.01
24.80
22.16
19.54
17.36
16.02
15.79
16.70
18.51
20.85
23.34
25.69
27.74
29.42
30.62
31.20
30.95
29.80
27.83
25.35
22.76
20.37
18.33
16.58
14.96
13.31
11.60
9.88
8.22
6.60
4.95
3.16
1.22
-0.78
-2.73
-4.54
-6.23
-7.94
-9.85
-12.07
-14.57
-17.23
-19.90
-22.45
-24.82
-27.04
-29.21
-31.47
-34.07
-37.25
-41.19
-45.81
-50.72
-55.22
-58.35
-59.21
-57.09
-51.79
-43.55
-33.07
-21.32
-9.37
1.82
11.52
19.25
24.80
28.11
29.29
28.56
26.26
22.91
19.17
15.74
13.25
12.05
12.22
13.54
15.64
18.12
20.70
23.16
25.36
27.12
28.22
28.47
27.74
26.07
23.68
20.91
18.07
15.41
13.03
10.90
8.95
7.04
5.08
2.98
0.76
-1.52
-3.73
-5.76
-7.58
-9.30
-11.11
-13.22
-15.71
-18.53
-21.49
-24.39
-27.09
-29.59
-31.97
-34.46
-37.29
-40.72
-44.91
-49.81
-55.04
-59.81
-63.05
-63.64
-60.79
-54.22
-44.35
-32.15
-18.92
-5.97
5.62
15.11
22.19
26.89
29.46
30.31
29.88
28.55
26.70
24.64
22.62
20.89
19.63
19.02
19.16
20.08
21.76
24.03
26.59
29.02
30.86
31.70
31.35
29.88
27.62
25.01
22.48
20.28
18.47
16.97
15.56
14.04
12.26
10.18
7.82
5.31
2.79
0.38
-1.87
-4.04
-6.28
-8.76
-11.53
-14.52
-17.55
-20.41
-22.98
-25.30
-27.54
-30.02
-33.10
-37.02
-41.86
-47.28
-52.52
-56.44
-57.78
-55.56
-49.39
-39.70
-27.54
-14.37
-1.55
9.89
19.40
26.81
32.20
35.67
37.39
37.53
36.35
34.25
31.71
29.24
27.26
26.00
25.57
25.92
26.99
28.66
30.79
33.13
35.29
36.80
37.20
36.23
33.96
30.75
27.16
23.70
20.69
18.19
16.03
13.98
11.83
9.50
7.05
4.64
2.47
0.68
-0.72
-1.85
-3.02
-4.51
-6.53
-9.07
-11.91
-14.76
-17.38
-19.68
-21.78
-23.92
-26.41
-29.50
-33.32
-37.75
-42.36
-46.37
-48.75
-48.53
-45.07
-38.32
-28.82
-17.56
-5.70
5.70
15.78
23.96
29.92
33.59
35.10
34.78
33.04
30.36
27.19
24.03
21.33
19.48
18.71
19.00
20.17
21.86
23.75
25.59
27.23
28.53
29.33
29.45
28.74
27.21
25.05
22.58
20.09
17.80
15.71
13.68
11.53
9.17
6.59
3.95
1.38
-0.99
-3.16
-5.19
-7.17
-9.18
-11.24
-13.32
-15.39
-17.45
-19.53
-21.70
-24.08
-26.83
-30.10
-34.02
-38.54
-43.36
-47.87
-51.17
-52.27
-50.38
-45.13
-36.75
-26.02
-14.10
-2.18
8.70
17.88
25.02
30.05
32.99
33.92
32.99
30.47
26.90
22.96
19.40
16.77
15.32
14.98
15.48
16.51
17.85
19.41
21.07
22.66
23.90
24.48
24.21
23.11
21.37
19.26
17.01
14.75
12.47
10.15
7.76
5.32
2.94
0.67
-1.41
-3.35
-5.22
-7.13
-9.16
-11.37
-13.77
-16.30
-18.87
-21.33
-23.58
-25.57
-27.40
-29.32
-31.68
-34.77
-38.64
-42.89
-46.67
-48.89
-48.54
-45.02
-38.35
-29.21
-18.66
-7.84
2.27
11.02
18.09
23.37
26.86
28.58
28.61
27.11
24.40
20.96
17.37
14.21
11.93
10.77
10.75
11.71
13.37
15.48
17.74
19.88
21.60
22.64
22.81
22.02
20.39
18.08
15.34
12.42
9.47
6.62
3.92
1.40
-0.96
-3.18
-5.30
-7.38
-9.48
-11.60
-13.72
-15.79
-17.74
-19.59
-21.40
-23.34
-25.62
-28.45
-31.95
-36.08
-40.56
-44.89
-48.39
-50.27
-49.82
-46.59
-40.51
-31.96
-21.73
-10.81
-0.21
9.26
17.04
22.84
26.55
28.23
28.04
26.24
23.26
19.59
15.78
12.36
9.78
8.32
8.09
9.04
10.94
13.48
16.25
18.86
20.94
22.20
22.41
21.47
19.38
16.33
12.67
8.85
5.26
2.17
-0.43
-2.70
-4.92
-7.29
-9.91
-12.74
-15.66
-18.52
-21.21
-23.68
-26.00
-28.36
-31.02
-34.20
-37.86
-41.60
-44.59
-45.78
-44.27
-39.58
-31.87
-21.92
-10.85
0.15
10.12
18.40
24.70
28.96
31.26
31.79
30.81
28.57
25.44
21.82
18.19
15.04
12.77
11.66
11.72
12.77
14.45
16.34
18.04
19.23
19.73
19.47
18.51
16.93
14.85
12.33
9.41
6.10
2.47
-1.32
-5.04
-8.43
-11.36
-13.87
-16.20
-18.69
-21.69
-25.40
-29.77
-34.47
-38.82
-41.98
-43.08
-41.45
-36.84
-29.51
-20.19
-9.88
0.37
9.70
17.52
23.50
27.55
29.70
30.04
28.76
26.19
22.75
19.03
15.64
13.08
11.64
11.32
11.90
13.00
14.21
15.23
15.92
16.20
16.07
15.48
14.36
12.59
10.13
7.01
3.38
-0.49
-4.29
-7.72
-10.62
-12.98
-15.00
-17.08
-19.68
-23.13
-27.52
-32.52
-37.44
-41.32
-43.19
-42.28
-38.24
-31.23
-21.91
-11.27
-0.43
9.59
18.04
24.49
28.81
31.07
31.48
30.30
27.93
24.82
21.45
18.30
15.69
13.87
12.95
12.95
13.79
15.23
16.94
18.50
19.53
19.82
19.33
18.19
16.52
14.41
11.82
8.76
5.27
1.56
-2.11
-5.50
-8.51
-11.18
-13.64
-16.03
-18.50
-21.18
-24.21
-27.72
-31.76
-36.10
-40.16
-43.07
-43.83
-41.67
-36.27
-27.94
-17.54
-6.25
4.73
14.44
22.27
28.00
31.61
33.24
33.04
31.22
28.14
24.31
20.40
17.10
14.93
14.15
14.69
16.24
18.42
20.86
23.26
25.39
27.02
27.88
27.76
26.56
24.33
21.29
17.76
14.10
10.60
7.45
4.70
2.26
-0.08
-2.51
-5.19
-8.12
-11.17
-14.10
-16.69
-18.83
-20.64
-22.38
-24.46
-27.26
-31.00
-35.65
-40.79
-45.63
-49.13
-50.22
-48.11
-42.54
-33.86
-22.98
-11.13
0.45
10.76
19.18
25.44
29.54
31.57
31.68
30.09
27.14
23.33
19.32
15.78
13.28
12.18
12.53
14.13
16.53
19.22
21.70
23.62
24.79
25.16
24.76
23.64
21.87
19.57
16.89
14.06
11.27
8.62
6.13
3.73
1.37
-1.01
-3.42
-5.86
-8.33
-10.80
-13.21
-15.43
-17.40
-19.13
-20.80
-22.72
-25.25
-28.66
-33.00
-37.99
-43.03
-47.21
-49.57
-49.28
-45.91
-39.55
-30.74
-20.35
-9.35
1.36
11.06
19.20
25.44
29.60
31.73
32.04
30.88
28.68
25.85
22.83
20.03
17.83
16.56
16.35
17.18
18.84
20.96
23.16
25.06
26.36
26.84
26.36
24.91
22.63
19.78
16.73
13.80
11.23
9.07
7.20
5.41
3.52
1.46
-0.71
-2.87
-4.89
-6.75
-8.52
-10.33
-12.29
-14.43
-16.74
-19.10
-21.41
-23.60
-25.70
-27.78
-30.03
-32.66
-35.88
-39.78
-44.22
-48.81
-52.83
-55.41
-55.69
-53.02
-47.18
-38.44
-27.54
-15.54
-3.62
7.13
15.92
22.35
26.42
28.39
28.69
27.78
26.08
23.96
21.76
19.79
18.34
17.64
17.77
18.70
20.24
22.18
24.29
26.38
28.28
29.87
30.94
31.30
30.81
29.42
27.29
24.70
22.00
19.48
17.26
15.27
13.37
11.40
9.27
6.99
4.62
2.23
-0.06
-2.13
-3.90
-5.32
-6.51
-7.74
-9.28
-11.36
-14.01
-17.06
-20.19
-23.08
-25.56
-27.64
-29.52
-31.56
-34.15
-37.54
-41.72
-46.28
-50.40
-52.99
-52.96
-49.63
-42.89
-33.29
-21.90
-9.97
1.35
11.26
19.35
25.58
30.12
33.26
35.19
36.02
35.74
34.29
31.76
28.41
24.75
21.37
18.83
17.45
17.31
18.19
19.78
21.69
23.58
25.19
26.32
26.86
26.79
26.12
24.89
23.10
20.78
17.98
14.84
11.55
8.34
5.41
2.83
0.55
-1.55
-3.61
-5.68
-7.69
-9.54
-11.14
-12.55
-13.95
-15.61
-17.71
-20.26
-23.10
-25.93
-28.52
-30.74
-32.62
-34.29
-35.96
-37.84
-40.21
-43.29
-47.15
-51.56
-55.88
-59.11
-60.18
-58.23
-52.92
-44.50
-33.77
-21.79
-9.72
1.44
10.95
18.36
23.52
26.56
27.74
27.44
26.04
23.89
21.34
18.77
16.57
15.09
14.53
14.91
16.08
17.84
19.97
22.30
24.65
26.75
28.29
28.93
28.45
26.88
24.52
21.81
19.20
16.95
15.06
13.36
11.62
9.68
7.52
5.25
3.03
1.01
-0.73
-2.22
-3.55
-4.88
-6.40
-8.24
-10.47
-13.05
-15.80
-18.55
-21.15
-23.57
-25.94
-28.50
-31.52
-35.20
-39.51
-44.11
-48.36
-51.45
-52.51
-50.88
-46.26
-38.79
-29.07
-18.05
-6.77
3.77
12.85
20.09
25.34
28.63
30.08
29.77
27.95
24.99
21.42
17.89
14.97
13.04
12.27
12.63
13.97
16.01
18.47
20.97
23.15
24.70
25.44
25.32
24.38
22.74
20.58
18.15
15.70
13.43
11.41
9.52
7.59
5.42
3.00
0.47
-1.94
-4.05
-5.81
-7.37
-8.93
-10.74
-12.94
-15.57
-18.51
-21.58
-24.54
-27.19
-29.45
-31.45
-33.43
-35.74
-38.68
-42.38
-46.70
-51.16
-55.02
-57.38
-57.36
-54.31
-48.03
-38.82
-27.47
-15.10
-2.88
8.17
17.32
24.24
28.88
31.45
32.25
31.66
30.05
27.82
25.38
23.10
21.30
20.20
19.88
20.36
21.55
23.35
25.62
28.14
30.61
32.68
33.93
34.06
32.96
30.79
27.93
24.85
21.98
19.54
17.48
15.60
13.64
11.41
8.88
6.14
3.39
0.81
-1.45
-3.32
-4.82
-6.08
-7.31
-8.76
-10.64
-13.00
-15.73
-18.60
-21.38
-23.90
-26.22
-28.57
-31.31
-34.73
-38.91
-43.61
-48.21
-51.83
-53.46
-52.28
-47.81
-40.12
-29.86
-18.06
-5.93
5.41
15.15
22.87
28.46
32.06
33.88
34.14
33.10
31.02
28.28
25.36
22.78
20.97
20.17
20.42
21.53
23.21
25.16
27.14
28.94
30.39
31.28
31.45
30.78
29.27
27.08
24.46
21.69
19.04
16.65
14.56
12.72
10.97
9.16
7.18
5.02
2.77
0.56
-1.45
-3.21
-4.80
-6.37
-8.15
-10.29
-12.84
-15.71
-18.66
-21.44
-23.87
-25.94
-27.89
-30.10
-32.99
-36.76
-41.20
-45.67
-49.14
-50.51
-48.89
-43.90
-35.78
-25.33
-13.72
-2.14
8.40
17.27
24.17
29.06
32.02
33.21
32.81
31.08
28.39
25.25
22.17
19.59
17.80
16.92
16.95
17.81
19.35
21.38
23.58
25.60
27.02
27.54
27.00
25.48
23.23
20.60
17.89
15.32
12.96
10.81
8.80
6.84
4.90
2.97
1.05
-0.81
-2.57
-4.17
-5.59
-6.86
-8.09
-9.47
-11.14
-13.19
-15.52
-17.96
-20.24
-22.21
-23.89
-25.49
-27.43
-30.13
-33.84
-38.41
-43.21
-47.23
-49.32
-48.51
-44.38
-37.16
-27.69
-17.09
-6.47
3.29
11.68
18.46
23.53
26.83
28.34
28.12
26.35
23.46
19.97
16.52
13.64
11.71
10.89
11.15
12.31
14.13
16.34
18.64
20.78
22.45
23.42
23.53
22.74
21.17
19.00
16.51
13.91
11.39
9.02
6.86
4.86
2.97
1.10
-0.86
-2.95
-5.18
-7.50
-9.81
-12.06
-14.28
-16.56
-18.98
-21.52
-24.06
-26.40
-28.39
-30.03
-31.58
-33.47
-36.13
-39.74
-44.14
-48.67
-52.37
-54.16
-53.16
-48.95
-41.65
-31.89
-20.67
-9.11
1.78
11.22
18.74
24.18
27.62
29.29
29.50
28.58
26.83
24.53
22.00
19.57
17.61
16.41
16.17
16.88
18.35
20.24
22.19
23.89
25.15
25.89
26.08
25.71
24.75
23.21
21.17
18.81
16.30
13.81
11.44
9.19
7.03
4.94
2.97
1.15
-0.46
-1.89
-3.27
-4.77
-6.59
-8.83
-11.47
-14.34
-17.19
-19.80
-22.09
-24.12
-26.08
-28.25
-30.86
-34.12
-38.10
-42.69
-47.44
-51.56
-54.00
-53.72
-50.03
-42.83
-32.78
-21.02
-8.93
2.28
11.76
19.12
24.39
27.78
29.66
30.30
29.95
28.75
26.90
24.62
22.23
20.10
18.56
17.85
18.04
19.11
20.88
23.12
25.52
27.71
29.34
30.11
29.86
28.64
26.68
24.28
21.78
19.45
17.41
15.65
14.07
12.51
10.85
9.00
6.96
4.83
2.71
0.70
-1.18
-2.99
-4.87
-6.94
-9.26
-11.83
-14.53
-17.20
-19.71
-22.01
-24.19
-26.43
-29.03
-32.25
-36.23
-40.77
-45.27
-48.78
-50.18
-48.60
-43.67
-35.68
-25.48
-14.22
-2.99
7.34
16.18
23.24
28.36
31.49
32.70
32.21
30.31
27.41
24.01
20.59
17.66
15.55
14.46
14.37
15.08
16.37
18.05
19.97
21.97
23.83
25.23
25.89
25.66
24.57
22.85
20.80
18.68
16.68
14.83
13.11
11.46
9.78
7.98
5.99
3.86
1.70
-0.31
-2.06
-3.52
-4.81
-6.14
-7.69
-9.59
-11.84
-14.36
-17.02
-19.65
-22.15
-24.49
-26.78
-29.23
-32.13
-35.65
-39.73
-43.95
-47.58
-49.75
-49.62
-46.63
-40.67
-32.11
-21.73
-10.58
0.25
9.81
17.43
22.80
25.92
26.99
26.35
24.40
21.57
18.36
15.26
12.75
11.17
10.72
11.39
13.00
15.21
17.63
19.88
21.70
22.88
23.36
23.11
22.21
20.78
19.00
17.05
15.11
13.29
11.59
9.89
8.09
6.09
3.86
1.44
-1.05
-3.53
-5.91
-8.14
-10.24
-12.31
-14.43
-16.68
-19.04
-21.45
-23.80
-26.04
-28.21
-30.44
-32.94
-35.92
-39.53
-43.79
-48.44
-52.90
-56.26
-57.48
-55.71
-50.58
-42.32
-31.80
-20.17
-8.60
2.01
11.07
18.31
23.63
27.03
28.64
28.68
27.53
25.65
23.49
21.40
19.60
18.19
17.21
16.74
16.87
17.70
19.21
21.20
23.25
24.88
25.63
25.28
23.89
21.68
18.98
16.03
13.02
10.02
7.08
4.23
1.46
-1.29
-4.11
-7.04
-10.11
-13.24
-16.38
-19.54
-22.79
-26.22
-29.84
-33.53
-37.04
-40.06
-42.37
-43.86
-44.56
-44.61
-44.29
-43.93
-43.86
-44.25
-44.98
-45.52
-45.04
-42.58
-37.41
-29.29
-18.61
-6.26
6.55
18.64
29.12
37.51
43.74
47.98
50.47
51.41
50.96
49.30
46.69
43.53
40.24
37.19
34.66
32.78
31.59
31.12
31.36
32.23
33.56
35.08
36.42
37.26
37.30
36.40
34.55
31.92
28.84
25.69
22.83
20.41
18.38
16.54
14.61
12.41
9.94
7.30
4.71
2.32
0.21
-1.65
-3.38
-5.12
-7.00
-9.09
-11.46
-14.11
-16.97
-19.93
-22.82
-25.52
-28.01
-30.45
-33.15
-36.44
-40.44
-44.88
-49.04
-51.85
-52.25
-49.46
-43.34
-34.35
-23.46
-11.85
-0.65
9.29
17.44
23.60
27.79
30.18
31.05
30.74
29.59
27.94
26.10
24.35
22.94
22.04
21.70
21.87
22.47
23.39
24.56
25.94
27.40
28.71
29.57
29.68
28.87
27.18
24.83
22.18
19.53
17.10
15.01
13.22
11.62
10.03
8.30
6.38
4.34
2.42
0.83
-0.31
-1.15
-1.97
-3.15
-4.93
-7.31
-10.10
-12.96
-15.62
-17.90
-19.78
-21.38
-22.93
-24.71
-27.00
-30.05
-33.91
-38.36
-42.78
-46.28
-47.83
-46.65
-42.41
-35.36
-26.30
-16.27
-6.31
2.76
10.44
16.46
20.76
23.33
24.23
23.64
21.84
19.26
16.41
13.78
11.75
10.54
10.19
10.69
11.95
13.90
16.33
18.97
21.39
23.17
24.00
23.79
22.70
21.02
19.04
16.94
14.80
12.63
10.46
8.34
6.34
4.51
2.81
1.16
-0.51
-2.24
-4.03
-5.84
-7.65
-9.48
-11.31
-13.17
-15.06
-16.97
-18.86
-20.75
-22.71
-24.86
-27.42
-30.53
-34.19
-38.12
-41.71
-44.10
-44.41
-42.02
-36.76
-29.04
-19.68
-9.74
-0.21
8.14
14.86
19.75
22.84
24.24
24.18
22.91
20.76
18.08
15.30
12.82
11.02
10.16
10.32
11.41
13.18
15.31
17.49
19.44
20.94
21.79
21.83
20.97
19.30
17.01
14.45
11.98
9.87
8.18
6.79
5.49
4.03
2.28
0.20
-2.14
-4.63
-7.15
-9.59
-11.88
-14.02
-16.08
-18.14
-20.29
-22.56
-24.87
-27.12
-29.25
-31.30
-33.51
-36.19
-39.64
-43.89
-48.61
-53.06
-56.23
-57.12
-55.01
-49.68
-41.50
-31.29
-20.14
-9.12
0.90
9.36
16.03
20.91
24.11
25.85
26.32
25.78
24.50
22.83
21.10
19.60
18.51
17.94
17.89
18.34
19.26
20.55
22.09
23.65
25.00
25.90
26.20
25.86
24.90
23.42
21.52
19.34
16.99
14.57
12.17
9.81
7.51
5.22
2.93
0.65
-1.62
-3.80
-5.88
-7.85
-9.78
-11.78
-13.96
-16.35
-18.90
-21.45
-23.87
-26.12
-28.31
-30.78
-33.89
-37.83
-42.46
-47.19
-51.08
-53.09
-52.36
-48.48
-41.59
-32.28
-21.49
-10.28
0.36
9.66
17.13
22.58
26.10
27.97
28.57
28.27
27.40
26.21
24.88
23.61
22.56
21.89
21.68
21.99
22.79
24.00
25.47
27.00
28.35
29.22
29.41
28.81
27.51
25.72
23.72
21.74
19.91
18.20
16.52
14.74
12.79
10.70
8.49
6.23
3.98
1.82
-0.18
-1.99
-3.64
-5.24
-6.96
-8.94
-11.26
-13.90
-16.73
-19.58
-22.30
-24.84
-27.22
-29.64
-32.38
-35.71
-39.72
-44.15
-48.33
-51.25
-51.89
-49.49
-43.87
-35.46
-25.21
-14.26
-3.69
5.69
13.41
19.31
23.44
25.96
27.11
27.22
26.59
25.52
24.25
22.94
21.72
20.73
20.12
20.06
20.66
21.86
23.49
25.27
26.90
28.15
28.84
28.89
28.27
27.01
25.23
23.17
21.06
19.11
17.37
15.81
14.30
12.72
11.05
9.29
7.48
5.62
3.69
1.70
-0.31
-2.25
-4.04
-5.64
-7.15
-8.71
-10.54
-12.75
-15.35
-18.21
-21.07
-23.69
-25.94
-27.84
-29.64
-31.67
-34.22
-37.46
-41.35
-45.57
-49.53
-52.47
-53.56
-52.06
-47.58
-40.21
-30.53
-19.52
-8.31
2.08
10.90
17.73
22.50
25.34
26.54
26.44
25.38
23.67
21.60
19.45
17.53
16.14
15.47
15.62
16.52
17.98
19.80
21.73
23.59
25.14
26.17
26.52
26.14
25.14
23.73
22.19
20.72
19.36
18.04
16.66
15.12
13.43
11.65
9.87
8.15
6.50
4.86
3.17
1.40
-0.41
-2.20
-3.90
-5.54
-7.24
-9.12
-11.27
-13.65
-16.16
-18.63
-20.96
-23.12
-25.21
-27.34
-29.68
-32.40
-35.65
-39.52
-43.89
-48.37
-52.20
-54.41
-54.06
-50.58
-43.98
-34.88
-24.35
-13.56
-3.53
5.10
12.05
17.29
20.87
22.87
23.38
22.56
20.73
18.31
15.81
13.65
12.15
11.41
11.44
12.15
13.49
15.40
17.79
20.46
23.09
25.25
26.56
26.76
25.85
24.07
21.80
19.42
17.17
15.12
13.23
11.40
9.53
7.60
5.61
3.57
1.49
-0.61
-2.67
-4.64
-6.51
-8.32
-10.22
-12.34
-14.75
-17.36
-19.95
-22.31
-24.32
-26.03
-27.71
-29.68
-32.27
-35.69
-39.92
-44.68
-49.40
-53.24
-55.27
-54.67
-50.96
-44.15
-34.78
-23.76
-12.17
-1.02
8.88
17.00
23.07
27.09
29.22
29.73
28.91
27.05
24.46
21.48
18.55
16.10
14.53
14.06
14.71
16.28
18.45
20.88
23.26
25.32
26.86
27.73
27.82
27.08
25.56
23.39
20.80
18.07
15.42
12.96
10.66
8.38
5.99
3.48
0.98
-1.36
-3.41
-5.22
-6.96
-8.85
-11.01
-13.42
-15.97
-18.58
-21.19
-23.83
-26.53
-29.34
-32.32
-35.57
-39.26
-43.54
-48.39
-53.53
-58.32
-61.86
-63.13
-61.31
-55.99
-47.36
-36.16
-23.55
-10.78
1.11
11.43
19.84
26.26
30.73
33.34
34.27
33.82
32.37
30.33
28.08
25.94
24.14
22.90
22.40
22.76
23.99
25.95
28.38
30.91
33.19
34.90
35.76
35.58
34.32
32.05
29.06
25.72
22.43
19.49
17.01
14.88
12.87
10.73
8.34
5.72
3.05
0.55
-1.66
-3.63
-5.55
-7.63
-10.03
-12.76
-15.68
-18.61
-21.42
-24.07
-26.66
-29.37
-32.39
-35.92
-40.05
-44.69
-49.40
-53.47
-55.93
-55.82
-52.52
-45.86
-36.30
-24.69
-12.14
0.24
11.53
21.07
28.50
33.69
36.76
37.96
37.58
35.96
33.44
30.43
27.37
24.75
22.93
22.11
22.33
23.42
25.17
27.37
29.76
32.02
33.80
34.72
34.50
33.11
30.76
27.87
24.89
22.16
19.78
17.66
15.58
13.31
10.78
8.05
5.27
2.61
0.18
-2.01
-4.04
-6.05
-8.18
-10.55
-13.17
-15.97
-18.80
-21.47
-23.84
-25.90
-27.87
-30.10
-33.02
-36.91
-41.74
-47.05
-51.96
-55.33
-56.06
-53.37
-47.04
-37.49
-25.69
-12.88
-0.31
10.97
20.29
27.35
32.14
34.84
35.74
35.10
33.22
30.46
27.29
24.24
21.84
20.43
20.12
20.78
22.09
23.79
25.65
27.55
29.35
30.83
31.75
31.86
31.07
29.45
27.21
24.58
21.74
18.83
15.92
13.13
10.55
8.25
6.20
4.31
2.45
0.54
-1.43
-3.41
-5.39
-7.42
-9.60
-12.00
-14.62
-17.33
-19.92
-22.27
-24.38
-26.46
-28.90
-32.05
-36.10
-40.92
-45.93
-50.25
-52.81
-52.66
-49.24
-42.53
-33.06
-21.84
-10.02
1.31
11.33
19.52
25.64
29.62
31.51
31.43
29.69
26.73
23.14
19.55
16.51
14.39
13.33
13.32
14.25
15.95
18.22
20.81
23.40
25.62
27.13
27.65
27.09
25.52
23.13
20.23
17.13
14.08
11.23
8.66
6.35
4.30
2.44
0.72
-0.96
-2.71
-4.69
-7.00
-9.66
-12.59
-15.56
-18.37
-20.86
-22.98
-24.86
-26.72
-28.86
-31.59
-35.10
-39.44
-44.32
-49.09
-52.83
-54.47
-53.16
-48.44
-40.49
-30.05
-18.25
-6.34
4.59
13.74
20.72
25.47
28.23
29.34
29.16
28.00
26.14
23.83
21.35
19.03
17.21
16.15
16.01
16.77
18.27
20.27
22.45
24.47
26.02
26.84
26.78
25.83
24.11
21.81
19.19
16.45
13.71
11.02
8.42
5.92
3.59
1.45
-0.54
-2.49
-4.56
-6.85
-9.39
-12.11
-14.85
-17.49
-19.93
-22.15
-24.21
-26.24
-28.46
-31.13
-34.48
-38.58
-43.16
-47.59
-50.93
-52.16
-50.52
-45.72
-38.01
-28.13
-17.10
-5.95
4.43
13.38
20.50
25.60
28.71
30.00
29.83
28.60
26.77
24.73
22.81
21.24
20.21
19.79
20.06
20.98
22.48
24.35
26.35
28.16
29.45
29.95
29.52
28.16
26.06
23.50
20.76
18.00
15.24
12.38
9.29
6.01
2.70
-0.37
-2.97
-5.02
-6.64
-8.11
-9.71
-11.65
-13.94
-16.45
-18.97
-21.29
-23.32
-25.10
-26.81
-28.76
-31.25
-34.50
-38.52
-42.97
-47.15
-50.10
-50.78
-48.35
-42.50
-33.54
-22.40
-10.36
1.30
11.52
19.65
25.48
29.12
30.88
31.18
30.42
29.01
27.26
25.41
23.65
22.13
21.02
20.49
20.66
21.54
23.02
24.83
26.66
28.21
29.24
29.59
29.17
27.96
26.01
23.49
20.68
17.92
15.46
13.42
11.70
10.07
8.30
6.24
3.92
1.46
-0.99
-3.33
-5.58
-7.79
-10.04
-12.38
-14.77
-17.13
-19.38
-21.49
-23.49
-25.52
-27.78
-30.51
-33.88
-37.90
-42.31
-46.48
-49.56
-50.55
-48.71
-43.71
-35.83
-25.87
-14.96
-4.25
5.34
13.23
19.18
23.19
25.43
26.15
25.61
24.12
22.00
19.59
17.21
15.21
13.85
13.28
13.51
14.42
15.83
17.55
19.42
21.29
22.96
24.19
24.69
24.23
22.75
20.41
17.55
14.60
11.89
9.59
7.63
5.81
3.94
1.97
-0.00
-1.79
-3.29
-4.53
-5.75
-7.20
-9.07
-11.31
-13.73
-16.05
-18.08
-19.81
-21.36
-22.95
-24.81
-27.15
-30.10
-33.68
-37.69
-41.63
-44.73
-46.08
-44.90
-40.80
-33.92
-24.91
-14.72
-4.40
5.16
13.30
19.68
24.17
26.81
27.71
27.07
25.17
22.38
19.19
16.11
13.60
11.93
11.17
11.29
12.14
13.59
15.45
17.51
19.40
20.73
21.22
20.74
19.44
17.57
15.45
13.35
11.39
9.61
7.96
6.35
4.63
2.70
0.49
-1.93
-4.37
-6.57
-8.36
-9.72
-10.80
-11.94
-13.46
-15.55
-18.18
-21.12
-24.06
-26.73
-29.08
-31.26
-33.61
-36.46
-39.95
-43.98
-48.06
-51.43
-53.25
-52.78
-49.53
-43.44
-34.86
-24.52
-13.36
-2.41
7.43
15.53
21.60
25.64
27.88
28.64
28.24
26.96
25.07
22.90
20.80
19.11
18.08
17.79
18.14
18.99
20.13
21.47
22.94
24.46
25.87
26.88
27.18
26.57
25.02
22.74
20.10
17.44
14.96
12.68
10.49
8.28
6.06
3.93
2.01
0.33
-1.21
-2.79
-4.60
-6.70
-9.03
-11.46
-13.88
-16.25
-18.58
-20.88
-23.14
-25.28
-27.30
-29.35
-31.71
-34.74
-38.67
-43.39
-48.37
-52.67
-55.13
-54.74
-50.90
-43.69
-33.79
-22.30
-10.48
0.58
10.13
17.78
23.45
27.19
29.17
29.61
28.79
27.09
24.93
22.74
20.85
19.47
18.68
18.44
18.71
19.45
20.61
22.14
23.93
25.73
27.25
28.15
28.18
27.24
25.42
23.00
20.35
17.79
15.56
13.70
12.14
10.70
9.21
7.57
5.74
3.75
1.69
-0.34
-2.27
-4.05
-5.73
-7.45
-9.42
-11.78
-14.52
-17.46
-20.30
-22.81
-24.92
-26.77
-28.73
-31.19
-34.41
-38.41
-42.92
-47.39
-51.07
-53.09
-52.65
-49.23
-42.73
-33.61
-22.74
-11.24
-0.17
9.64
17.70
23.85
28.12
30.63
31.54
31.03
29.35
26.85
24.01
21.30
19.16
17.84
17.43
17.88
19.03
20.77
22.94
25.33
27.62
29.45
30.45
30.42
29.36
27.45
25.02
22.42
19.92
17.68
15.71
13.94
12.24
10.46
8.51
6.39
4.17
1.99
-0.03
-1.85
-3.56
-5.27
-7.12
-9.20
-11.50
-13.93
-16.33
-18.58
-20.64
-22.54
-24.43
-26.50
-29.03
-32.26
-36.29
-41.00
-45.94
-50.32
-53.16
-53.52
-50.80
-44.92
-36.31
-25.83
-14.53
-3.39
6.77
15.35
21.96
26.38
28.58
28.73
27.22
24.58
21.42
18.28
15.55
13.47
12.17
11.72
12.14
13.39
15.35
17.77
20.29
22.54
24.15
24.86
24.56
23.31
21.33
18.90
16.31
13.75
11.35
9.12
7.08
5.21
3.42
1.65
-0.23
-2.26
-4.43
-6.63
-8.74
-10.74
-12.72
-14.85
-17.24
-19.86
-22.53
-25.05
-27.35
-29.53
-31.88
-34.70
-38.25
-42.52
-47.26
-51.88
-55.57
-57.38
-56.48
-52.41
-45.22
-35.51
-24.22
-12.46
-1.18
8.91
17.33
23.83
28.30
30.82
31.60
31.00
29.43
27.25
24.84
22.50
20.53
19.22
18.82
19.44
20.99
23.19
25.65
27.94
29.72
30.73
30.89
30.19
28.73
26.70
24.36
21.99
19.81
17.95
16.36
14.85
13.17
11.16
8.79
6.19
3.61
1.24
-0.80
-2.53
-4.09
-5.70
-7.55
-9.79
-12.50
-15.57
-18.79
-21.90
-24.69
-27.12
-29.43
-32.01
-35.28
-39.40
-44.13
-48.80
-52.42
-53.95
-52.59
-47.97
-40.30
-30.23
-18.78
-7.05
3.98
13.58
21.33
27.07
30.82
32.71
32.97
31.96
30.10
27.84
25.58
23.64
22.18
21.30
21.03
21.39
22.34
23.75
25.44
27.16
28.66
29.77
30.32
30.21
29.36
27.73
25.40
22.57
19.50
16.51
13.88
11.71
9.99
8.52
7.03
5.34
3.37
1.23
-0.92
-2.90
-4.70
-6.41
-8.21
-10.24
-12.54
-15.04
-17.61
-20.13
-22.55
-24.90
-27.29
-29.87
-32.86
-36.42
-40.60
-45.13
-49.41
-52.53
-53.49
-51.46
-46.09
-37.59
-26.77
-14.79
-2.93
7.73
16.49
23.09
27.63
30.38
31.68
31.77
30.83
29.03
26.61
23.91
21.32
19.23
18.01
17.84
18.75
20.58
22.98
25.50
27.71
29.25
29.94
29.75
28.76
27.10
24.97
22.57
20.15
17.94
16.08
14.61
13.41
12.29
11.01
9.41
7.41
5.07
2.54
0.04
-2.18
-3.97
-5.30
-6.30
-7.25
-8.43
-10.06
-12.21
-14.81
-17.64
-20.48
-23.13
-25.55
-27.86
-30.24
-32.97
-36.24
-40.14
-44.45
-48.65
-51.89
-53.19
-51.66
-46.81
-38.76
-28.26
-16.50
-4.78
5.82
14.64
21.40
26.10
28.89
29.93
29.43
27.70
25.15
22.27
19.51
17.24
15.71
15.04
15.22
16.19
17.76
19.69
21.70
23.52
24.93
25.76
25.94
25.46
24.40
22.85
20.94
18.78
16.46
14.09
11.75
9.58
7.67
6.08
4.73
3.51
2.24
0.82
-0.77
-2.47
-4.18
-5.86
-7.53
-9.29
-11.20
-13.29
-15.47
-17.61
-19.58
-21.31
-22.93
-24.66
-26.83
-29.73
-33.45
-37.86
-42.52
-46.77
-49.78
-50.77
-49.13
-44.60
-37.36
-28.06
-17.60
-7.01
2.85
11.36
18.21
23.29
26.60
28.19
28.18
26.76
24.29
21.22
18.00
15.09
12.84
11.49
11.16
11.84
13.39
15.58
18.11
20.66
22.93
24.59
25.34
25.00
23.50
21.07
18.12
15.18
12.63
10.64
9.10
7.70
6.16
4.28
2.04
-0.46
-3.02
-5.44
-7.56
-9.27
-10.61
-11.69
-12.78
-14.15
-16.04
-18.52
-21.48
-24.67
-27.77
-30.51
-32.80
-34.77
-36.73
-39.12
-42.30
-46.32
-50.80
-54.92
-57.58
-57.71
-54.63
-48.19
-38.90
-27.71
-15.77
-4.21
6.11
14.65
21.18
25.71
28.43
29.62
29.61
28.72
27.25
25.45
23.58
21.85
20.50
19.71
19.60
20.16
21.27
22.73
24.37
25.99
27.45
28.63
29.34
29.41
28.69
27.12
24.84
22.10
19.22
16.48
14.07
12.06
10.40
8.97
7.61
6.15
4.46
2.51
0.38
-1.79
-3.88
-5.82
-7.64
-9.45
-11.35
-13.45
-15.75
-18.26
-20.92
-23.64
-26.32
-28.91
-31.44
-34.05
-37.01
-40.59
-44.90
-49.73
-54.45
-58.09
-59.56
-57.93
-52.80
-44.39
-33.53
-21.38
-9.18
2.04
11.66
19.35
25.11
29.04
31.32
32.17
31.84
30.61
28.76
26.66
24.65
23.03
22.04
21.80
22.33
23.55
25.30
27.39
29.58
31.54
32.97
33.58
33.23
31.97
30.03
27.71
25.30
22.98
20.80
18.75
16.76
14.81
12.86
10.89
8.87
6.76
4.59
2.45
0.49
-1.19
-2.58
-3.84
-5.21
-6.99
-9.32
-12.16
-15.26
-18.31
-21.08
-23.48
-25.61
-27.71
-30.07
-32.97
-36.59
-40.90
-45.63
-50.14
-53.48
-54.63
-52.74
-47.45
-39.04
-28.35
-16.51
-4.68
6.18
15.39
22.52
27.41
30.11
30.91
30.28
28.73
26.70
24.45
22.14
19.90
17.97
16.62
16.12
16.60
18.00
20.07
22.43
24.69
26.47
27.48
27.54
26.66
25.02
22.90
20.62
18.44
16.49
14.72
13.01
11.20
9.19
6.98
4.66
2.37
0.23
-1.72
-3.52
-5.29
-7.15
-9.18
-11.37
-13.66
-15.97
-18.20
-20.28
-22.16
-23.90
-25.68
-27.81
-30.61
-34.23
-38.50
-42.82
-46.31
-47.98
-47.09
-43.27
-36.69
-27.92
-17.83
-7.35
2.62
11.41
18.57
23.95
27.59
29.61
30.16
29.41
27.51
24.75
21.57
18.48
15.99
14.47
14.04
14.58
15.84
17.50
19.29
21.04
22.57
23.74
24.37
24.31
23.44
21.77
19.46
16.79
14.07
11.55
9.31
7.28
5.28
3.18
0.95
-1.33
-3.49
-5.42
-7.11
-8.68
-10.31
-12.18
-14.39
-16.92
-19.64
-22.39
-25.00
-27.40
-29.63
-31.88
-34.47
-37.68
-41.64
-46.17
-50.64
-54.14
-55.62
-54.21
-49.54
-41.79
-31.71
-20.36
-8.86
1.83
11.02
18.35
23.72
27.25
29.18
29.83
29.49
28.41
26.80
24.87
22.89
21.15
19.95
19.50
19.89
21.05
22.78
24.77
26.68
28.16
28.94
28.85
27.88
26.15
23.88
21.33
18.76
16.34
14.13
12.11
10.17
8.18
6.05
3.76
1.40
-0.86
-2.87
-4.59
-6.10
-7.64
-9.47
-11.75
-14.50
-17.52
-20.54
-23.30
-25.72
-27.93
-30.21
-32.91
-36.26
-40.27
-44.57
-48.45
-51.00
-51.32
-48.74
-43.05
-34.58
-24.12
-12.75
-1.59
8.40
16.60
22.73
26.87
29.26
30.20
29.99
28.86
27.02
24.79
22.53
20.68
19.57
19.37
19.99
21.22
22.76
24.34
25.79
26.96
27.76
28.10
27.92
27.19
25.90
24.12
21.98
19.66
17.35
15.17
13.12
11.13
9.09
6.96
4.82
2.82
1.05
-0.58
-2.28
-4.33
-6.87
-9.78
-12.77
-15.47
-17.68
-19.40
-20.90
-22.53
-24.60
-27.31
-30.71
-34.68
-38.91
-42.94
-46.09
-47.60
-46.80
-43.29
-37.08
-28.64
-18.77
-8.40
1.55
10.37
17.56
22.84
26.14
27.55
27.33
25.85
23.55
20.93
18.40
16.33
14.94
14.35
14.55
15.44
16.83
18.48
20.15
21.61
22.71
23.37
23.52
23.11
22.09
20.43
18.16
15.48
12.69
10.14
8.06
6.50
5.27
4.10
2.73
1.06
-0.82
-2.74
-4.57
-6.28
-7.99
-9.84
-11.90
-14.17
-16.52
-18.81
-21.00
-23.16
-25.46
-28.14
-31.37
-35.16
-39.26
-43.13
-46.01
-47.09
-45.69
-41.52
-34.74
-25.93
-15.91
-5.61
4.15
12.70
19.58
24.50
27.39
28.34
27.64
25.70
23.03
20.17
17.56
15.55
14.35
14.00
14.44
15.52
17.06
18.86
20.73
22.41
23.64
24.15
23.78
22.54
20.63
18.39
16.13
14.04
12.10
10.15
8.02
5.63
3.08
0.57
-1.72
-3.72
-5.47
-7.13
-8.84
-10.70
-12.76
-15.02
-17.44
-19.94
-22.42
-24.77
-26.93
-29.01
-31.26
-34.01
-37.54
-41.87
-46.59
-50.84
-53.47
-53.37
-49.81
-42.78
-32.97
-21.57
-9.95
0.75
9.85
17.10
22.53
26.32
28.61
29.54
29.30
28.21
26.64
24.99
23.53
22.41
21.61
21.14
21.01
21.32
22.16
23.51
25.16
26.76
27.90
28.28
27.74
26.34
24.26
21.73
18.97
16.17
13.48
11.01
8.86
7.01
5.34
3.73
2.03
0.20
-1.70
-3.57
-5.36
-7.07
-8.84
-10.79
-13.01
-15.49
-18.12
-20.73
-23.17
-25.39
-27.51
-29.75
-32.45
-35.86
-40.05
-44.69
-49.06
-52.14
-52.88
-50.49
-44.80
-36.25
-25.78
-14.60
-3.80
5.85
13.96
20.43
25.31
28.66
30.51
30.93
30.15
28.57
26.70
25.01
23.80
23.12
22.84
22.82
23.01
23.53
24.50
25.94
27.63
29.17
30.07
30.02
28.95
27.04
24.63
22.02
19.41
16.87
14.38
11.94
9.58
7.33
5.20
3.16
1.16
-0.83
-2.79
-4.62
-6.22
-7.56
-8.73
-9.96
-11.48
-13.43
-15.82
-18.49
-21.18
-23.67
-25.85
-27.83
-29.86
-32.31
-35.49
-39.51
-44.14
-48.79
-52.48
-54.13
-52.77
-47.92
-39.74
-29.10
-17.27
-5.60
4.82
13.39
19.93
24.58
27.58
29.11
29.36
28.51
26.80
24.56
22.15
19.92
18.21
17.24
17.14
17.85
19.17
20.81
22.51
24.05
25.35
26.37
27.03
27.25
26.95
26.07
24.69
22.99
21.13
19.22
17.27
15.23
13.00
10.54
7.90
5.19
2.56
0.13
-2.05
-4.00
-5.87
-7.84
-10.10
-12.68
-15.53
-18.43
-21.17
-23.56
-25.63
-27.59
-29.82
-32.70
-36.44
-40.95
-45.71
-49.85
-52.36
-52.37
-49.36
-43.31
-34.70
-24.38
-13.33
-2.52
7.25
15.37
21.51
25.53
27.54
27.78
26.63
24.51
21.86
19.08
16.56
14.61
13.47
13.28
14.00
15.50
17.53
19.80
22.02
23.88
25.15
25.62
25.17
23.80
21.67
19.06
16.33
13.81
11.71
10.03
8.59
7.12
5.42
3.38
1.10
-1.27
-3.55
-5.67
-7.67
-9.67
-11.80
-14.12
-16.64
-19.27
-21.91
-24.49
-26.98
-29.42
-31.94
-34.71
-37.96
-41.83
-46.28
-50.95
-55.08
-57.62
-57.54
-54.12
-47.26
-37.55
-26.09
-14.15
-2.89
6.97
15.03
21.20
25.55
28.16
29.22
28.95
27.70
25.80
23.65
21.55
19.76
18.49
17.86
17.92
18.64
19.91
21.60
23.53
25.46
27.15
28.29
28.62
28.00
26.46
24.22
21.64
19.06
16.71
14.62
12.66
10.63
8.41
5.96
3.38
0.82
-1.58
-3.69
-5.48
-7.02
-8.44
-9.94
-11.68
-13.76
-16.17
-18.76
-21.37
-23.84
-26.07
-28.16
-30.30
-32.79
-35.91
-39.76
-44.12
-48.42
-51.73
-53.04
-51.51
-46.76
-39.02
-29.02
-17.82
-6.51
4.00
13.07
20.36
25.77
29.34
31.26
31.77
31.15
29.72
27.79
25.72
23.81
22.28
21.30
20.89
21.05
21.75
22.95
24.56
26.40
28.15
29.44
29.94
29.48
28.10
25.99
23.48
20.86
18.38
16.18
14.27
12.55
10.87
9.05
6.96
4.60
2.08
-0.42
-2.74
-4.77
-6.56
-8.23
-9.93
-11.83
-13.98
-16.30
-18.64
-20.83
-22.79
-24.62
-26.58
-29.02
-32.22
-36.28
-40.98
-45.76
-49.76
-51.97
-51.50
-47.82
-40.91
-31.34
-20.12
-8.50
2.38
11.65
18.84
23.86
26.92
28.38
28.57
27.78
26.17
23.91
21.21
18.40
15.94
14.23
13.55
13.87
15.02
16.71
18.67
20.65
22.44
23.80
24.48
24.28
23.22
21.45
19.30
17.08
15.01
13.17
11.44
9.66
7.68
5.47
3.08
0.69
-1.53
-3.42
-5.01
-6.40
-7.80
-9.38
-11.21
-13.22
-15.30
-17.29
-19.13
-20.86
-22.67
-24.83
-27.63
-31.23
-35.48
-39.87
-43.56
-45.54
-44.95
-41.30
-34.63
-25.51
-14.92
-3.97
6.28
14.99
21.68
26.19
28.66
29.39
28.75
27.11
24.80
22.10
19.32
16.75
14.65
13.23
12.60
12.78
13.69
15.19
17.07
19.08
20.89
22.18
22.69
22.26
20.88
18.74
16.17
13.54
11.17
9.16
7.43
5.71
3.72
1.30
-1.50
-4.46
-7.32
-9.89
-12.16
-14.24
-16.34
-18.58
-20.99
-23.51
-26.03
-28.45
-30.74
-32.98
-35.39
-38.25
-41.81
-46.07
-50.59
-54.53
-56.75
-56.15
-52.08
-44.56
-34.27
-22.40
-10.26
1.04
10.76
18.56
24.39
28.36
30.63
31.42
30.97
29.60
27.64
25.44
23.26
21.29
19.66
18.50
17.98
18.28
19.49
21.49
23.93
26.28
28.05
28.84
28.57
27.35
25.42
23.04
20.43
17.78
15.25
12.98
11.02
9.29
7.58
5.63
3.29
0.62
-2.18
-4.85
-7.22
-9.32
-11.33
-13.47
-15.85
-18.42
-21.04
-23.52
-25.79
-27.96
-30.34
-33.30
-37.11
-41.69
-46.52
-50.68
-53.06
-52.73
-49.16
-42.39
-32.97
-21.83
-10.00
1.50
11.85
20.47
27.05
31.53
34.03
34.75
33.96
31.97
29.16
25.98
22.91
20.41
18.83
18.33
18.84
20.15
21.90
23.74
25.35
26.50
27.08
27.10
26.58
25.56
24.05
22.10
19.77
17.18
14.46
11.73
9.06
6.48
3.99
1.58
-0.70
-2.81
-4.73
-6.47
-8.12
-9.81
-11.62
-13.54
-15.55
-17.58
-19.61
-21.66
-23.79
-26.10
-28.71
-31.75
-35.33
-39.53
-44.18
-48.84
-52.70
-54.79
-54.19
-50.35
-43.29
-33.54
-22.08
-9.98
1.71
12.19
20.86
27.41
31.76
34.02
34.50
33.56
31.66
29.21
26.60
24.22
22.37
21.25
20.92
21.28
22.15
23.34
24.67
26.06
27.37
28.43
29.00
28.84
27.78
25.85
23.24
20.29
17.36
14.69
12.35
10.25
8.24
6.17
3.99
1.74
-0.48
-2.61
-4.68
-6.76
-8.97
-11.35
-13.88
-16.45
-18.88
-21.04
-22.88
-24.47
-26.03
-27.87
-30.27
-33.49
-37.55
-42.22
-46.91
-50.78
-52.85
-52.25
-48.48
-41.56
-32.10
-21.09
-9.70
1.04
10.40
17.99
23.72
27.62
29.80
30.41
29.64
27.79
25.21
22.33
19.51
17.11
15.39
14.53
14.65
15.77
17.77
20.41
23.28
25.92
27.83
28.62
28.10
26.36
23.70
20.58
17.44
14.58
12.07
9.86
7.80
5.77
3.77
1.83
0.01
-1.66
-3.20
-4.69
-6.24
-7.96
-9.96
-12.23
-14.66
-17.07
-19.27
-21.21
-22.98
-24.82
-27.05
-29.94
-33.62
-37.96
-42.52
-46.54
-49.07
-49.14
-46.12
-39.86
-30.84
-20.01
-8.56
2.40
12.03
19.86
25.73
29.65
31.75
32.21
31.25
29.12
26.14
22.71
19.30
16.37
14.34
13.47
13.79
15.16
17.25
19.70
22.12
24.18
25.58
26.06
25.48
23.88
21.50
18.77
16.10
13.75
11.73
9.80
7.67
5.16
2.31
-0.63
-3.34
-5.57
-7.26
-8.56
-9.77
-11.21
-13.10
-15.54
-18.40
-21.46
-24.46
-27.19
-29.66
-32.05
-34.68
-37.85
-41.74
-46.22
-50.79
-54.70
-56.98
-56.72
-53.31
-46.63
-37.17
-25.85
-13.88
-2.37
7.86
16.37
22.99
27.72
30.60
31.71
31.26
29.59
27.20
24.61
22.27
20.47
19.36
18.96
19.24
20.14
21.57
23.36
25.29
27.10
28.53
29.37
29.50
28.82
27.39
25.34
22.90
20.35
17.91
15.69
13.63
11.55
9.30
6.86
4.36
2.01
-0.04
-1.80
-3.47
-5.32
-7.55
-10.22
-13.18
-16.18
-18.98
-21.46
-23.65
-25.73
-27.98
-30.67
-34.00
-38.02
-42.55
-47.14
-51.06
-53.42
-53.35
-50.23
-43.87
-34.67
-23.49
-11.46
0.23
10.63
19.16
25.54
29.79
32.10
32.78
32.18
30.69
28.71
26.58
24.58
22.92
21.75
21.20
21.32
22.12
23.52
25.35
27.32
29.11
30.37
30.87
30.50
29.32
27.47
25.17
22.61
19.97
17.36
14.87
12.51
10.28
8.12
5.99
3.89
1.89
0.01
-1.73
-3.43
-5.25
-7.36
-9.80
-12.54
-15.42
-18.27
-20.96
-23.44
-25.74
-27.97
-30.35
-33.12
-36.54
-40.62
-45.05
-49.08
-51.72
-51.94
-49.05
-42.93
-34.03
-23.27
-11.77
-0.59
9.42
17.75
24.13
28.52
31.02
31.81
31.12
29.29
26.72
23.86
21.16
19.03
17.75
17.43
18.05
19.47
21.47
23.77
26.08
28.08
29.46
29.98
29.51
28.11
25.99
23.45
20.82
18.27
15.89
13.62
11.37
9.08
6.74
4.40
2.14
0.00
-2.00
-3.89
-5.75
-7.65
-9.69
-11.86
-14.07
-16.18
-18.08
-19.78
-21.50
-23.54
-26.25
-29.80
-34.13
-38.88
-43.48
-47.21
-49.28
-49.01
-45.91
-39.86
-31.20
-20.73
-9.53
1.26
10.69
18.20
23.58
26.91
28.41
28.34
26.96
24.58
21.57
18.42
15.63
13.63
12.68
12.80
13.81
15.44
17.38
19.39
21.28
22.84
23.86
24.11
23.41
21.75
19.32
16.46
13.51
10.73
8.18
5.79
3.45
1.06
-1.37
-3.78
-6.10
-8.34
-10.55
-12.84
-15.29
-17.92
-20.65
-23.34
-25.86
-28.11
-30.14
-32.14
-34.39
-37.20
-40.71
-44.85
-49.17
-52.93
-55.21
-55.14
-52.10
-45.95
-37.03
-26.10
-14.21
-2.40
8.39
17.48
24.48
29.23
31.79
32.38
31.33
29.11
26.20
23.12
20.31
18.13
16.81
16.45
17.03
18.43
20.40
22.60
24.67
26.26
27.11
27.11
26.29
24.80
22.83
20.56
18.14
15.66
13.17
10.69
8.24
5.84
3.52
1.30
-0.83
-2.91
-5.01
-7.19
-9.49
-11.88
-14.33
-16.82
-19.29
-21.69
-24.04
-26.40
-28.96
-31.96
-35.62
-39.97
-44.70
-49.17
-52.45
-53.56
-51.75
-46.67
-38.55
-28.08
-16.29
-4.35
6.70
16.09
23.40
28.54
31.63
32.90
32.64
31.16
28.86
26.17
23.55
21.40
19.97
19.35
19.50
20.30
21.56
23.14
24.83
26.37
27.54
28.10
27.95
27.08
25.57
23.56
21.25
18.81
16.36
13.98
11.63
9.27
6.81
4.23
1.61
-0.93
-3.25
-5.28
-7.06
-8.76
-10.58
-12.69
-15.15
-17.89
-20.73
-23.49
-26.07
-28.52
-31.04
-33.91
-37.36
-41.33
-45.44
-48.96
-50.91
-50.39
-46.79
-40.05
-30.67
-19.60
-7.98
3.13
12.88
20.74
26.49
30.12
31.83
31.97
30.97
29.22
27.04
24.68
22.33
20.20
18.54
17.56
17.41
18.06
19.37
21.10
22.96
24.63
25.81
26.21
25.68
24.20
21.96
19.27
16.48
13.85
11.52
9.47
7.56
5.68
3.70
1.59
-0.60
-2.79
-4.90
-6.90
-8.84
-10.82
-12.95
-15.24
-17.61
-19.87
-21.86
-23.53
-25.02
-26.66
-28.87
-31.98
-36.09
-40.85
-45.47
-48.84
-49.86
-47.68
-42.08
-33.46
-22.75
-11.13
0.22
10.36
18.61
24.64
28.36
29.93
29.70
28.17
25.85
23.14
20.38
17.79
15.56
13.92
13.06
13.11
14.06
15.74
17.82
19.95
21.75
22.96
23.40
23.02
21.87
20.09
17.87
15.34
12.65
9.87
7.12
4.51
2.16
0.12
-1.63
-3.22
-4.87
-6.78
-9.09
-11.81
-14.83
-17.90
-20.77
-23.25
-25.32
-27.12
-28.96
-31.20
-34.18
-38.03
-42.63
-47.53
-51.95
-54.88
-55.35
-52.62
-46.47
-37.28
-25.99
-13.84
-2.09
8.32
16.84
23.28
27.77
30.48
31.64
31.47
30.18
28.02
25.36
22.61
20.18
18.42
17.49
17.42
18.07
19.25
20.71
22.23
23.61
24.67
25.27
25.31
24.74
23.60
21.90
19.73
17.20
14.46
11.69
9.04
6.61
4.40
2.39
0.49
-1.35
-3.17
-5.08
-7.14
-9.49
-12.13
-14.99
-17.90
-20.65
-23.12
-25.32
-27.43
-29.70
-32.38
-35.68
-39.64
-44.02
-48.33
-51.77
-53.38
-52.30
-48.03
-40.58
-30.55
-18.94
-6.87
4.60
14.69
22.90
28.97
32.82
34.51
34.29
32.56
29.86
26.75
23.77
21.28
19.49
18.46
18.19
18.63
19.69
21.27
23.18
25.16
26.88
28.01
28.29
27.61
26.06
23.83
21.22
18.51
15.87
13.36
10.96
8.60
6.23
3.84
1.47
-0.83
-3.08
-5.36
-7.75
-10.27
-12.86
-15.40
-17.76
-19.85
-21.70
-23.41
-25.15
-27.13
-29.58
-32.73
-36.70
-41.39
-46.37
-50.79
-53.57
-53.67
-50.38
-43.62
-33.95
-22.40
-10.21
1.50
11.88
20.45
26.96
31.36
33.70
34.14
32.94
30.53
27.40
24.11
21.09
18.64
16.95
16.09
16.08
16.91
18.46
20.51
22.71
24.69
26.11
26.75
26.52
25.43
23.55
21.02
18.09
15.06
12.23
9.80
7.81
6.09
4.39
2.49
0.25
-2.30
-5.06
-7.91
-10.71
-13.36
-15.74
-17.77
-19.47
-20.96
-22.46
-24.23
-26.48
-29.33
-32.84
-36.95
-41.45
-45.83
-49.34
-51.01
-49.98
-45.72
-38.32
-28.46
-17.26
-5.95
4.42
13.18
20.06
25.10
28.45
30.28
30.68
29.73
27.52
24.33
20.67
17.19
14.56
13.28
13.48
14.96
17.24
19.77
22.11
23.99
25.26
25.90
25.85
25.11
23.68
21.69
19.32
16.77
14.18
11.60
9.01
6.37
3.68
0.96
-1.74
-4.43
-7.09
-9.75
-12.38
-14.91
-17.24
-19.35
-21.28
-23.20
-25.29
-27.76
-30.77
-34.41
-38.65
-43.22
-47.53
-50.70
-51.72
-49.71
-44.29
-35.70
-24.79
-12.75
-0.84
9.91
18.79
25.44
29.79
31.97
32.30
31.20
29.16
26.67
24.16
21.94
20.25
19.21
18.88
19.27
20.31
21.84
23.63
25.40
26.86
27.77
27.97
27.42
26.15
24.26
21.88
19.15
16.28
13.43
10.77
8.35
6.09
3.89
1.66
-0.62
-2.87
-5.05
-7.15
-9.26
-11.52
-14.02
-16.72
-19.49
-22.15
-24.59
-26.87
-29.21
-31.92
-35.25
-39.23
-43.51
-47.41
-50.03
-50.44
-47.99
-42.46
-34.14
-23.76
-12.33
-0.95
9.40
17.98
24.40
28.62
30.84
31.41
30.69
29.00
26.65
23.95
21.25
18.93
17.33
16.63
16.88
17.93
19.54
21.40
23.25
24.84
25.94
26.38
26.00
24.76
22.74
20.18
17.42
14.80
12.55
10.66
8.96
7.19
5.17
2.87
0.46
-1.83
-3.87
-5.67
-7.38
-9.25
-11.39
-13.81
-16.35
-18.79
-20.94
-22.76
-24.36
-25.96
-27.91
-30.50
-33.91
-38.03
-42.43
-46.32
-48.70
-48.60
-45.37
-38.91
-29.73
-18.84
-7.47
3.27
12.58
20.00
25.41
28.87
30.51
30.55
29.31
27.19
24.65
22.14
19.99
18.41
17.51
17.33
17.80
18.82
20.17
21.59
22.83
23.68
24.01
23.78
23.01
21.76
20.14
18.28
16.33
14.34
12.36
10.34
8.24
6.04
3.78
1.56
-0.57
-2.57
-4.51
-6.49
-8.65
-11.03
-13.60
-16.22
-18.68
-20.82
-22.57
-24.04
-25.48
-27.21
-29.54
-32.61
-36.37
-40.45
-44.18
-46.69
-47.06
-44.57
-38.98
-30.64
-20.43
-9.54
0.86
9.94
17.28
22.80
26.60
28.77
29.37
28.45
26.20
23.00
19.42
16.06
13.44
11.88
11.45
12.03
13.40
15.31
17.49
19.66
21.50
22.68
22.95
22.23
20.67
18.56
16.24
13.97
11.85
9.86
7.95
6.05
4.16
2.25
0.30
-1.73
-3.84
-6.00
-8.12
-10.13
-12.02
-13.86
-15.74
-17.73
-19.83
-21.98
-24.13
-26.29
-28.59
-31.25
-34.47
-38.20
-42.14
-45.57
-47.64
-47.48
-44.56
-38.86
-30.82
-21.28
-11.16
-1.29
7.69
15.32
21.26
25.24
27.14
27.00
25.16
22.16
18.64
15.25
12.48
10.63
9.83
10.01
11.02
12.60
14.46
16.30
17.88
19.00
19.52
19.34
18.45
16.97
15.10
13.08
11.08
9.14
7.13
4.90
2.34
-0.48
-3.35
-6.02
-8.29
-10.15
-11.72
-13.27
-15.02
-17.09
-19.43
-21.86
-24.14
-26.05
-27.57
-28.86
-30.25
-32.13
-34.81
-38.43
-42.84
-47.60
-51.95
-54.96
-55.70
-53.45
-47.93
-39.41
-28.67
-16.82
-5.00
5.81
14.99
22.21
27.41
30.66
32.09
31.94
30.54
28.31
25.74
23.27
21.27
19.93
19.31
19.37
20.03
21.20
22.77
24.59
26.45
28.03
29.03
29.23
28.54
27.09
25.10
22.87
20.60
18.38
16.17
13.91
11.53
9.01
6.41
3.82
1.36
-0.85
-2.81
-4.61
-6.41
-8.41
-10.69
-13.22
-15.85
-18.39
-20.74
-22.90
-25.00
-27.25
-29.91
-33.20
-37.22
-41.89
-46.81
-51.21
-54.06
-54.37
-51.43
-45.15
-36.02
-25.00
-13.22
-1.72
8.69
17.51
24.45
29.43
32.48
33.78
33.58
32.22
30.07
27.56
25.07
23.01
21.68
21.22
21.64
22.79
24.44
26.38
28.38
30.24
31.73
32.58
32.58
31.65
29.87
27.49
24.83
22.15
19.58
17.12
14.69
12.25
9.77
7.29
4.87
2.57
0.44
-1.52
-3.37
-5.28
-7.43
-9.93
-12.73
-15.65
-18.40
-20.76
-22.74
-24.56
-26.62
-29.31
-32.90
-37.36
-42.35
-47.21
-51.05
-52.89
-51.87
-47.44
-39.62
-29.03
-16.81
-4.31
7.18
16.75
23.97
28.85
31.64
32.72
32.40
30.96
28.71
25.99
23.17
20.63
18.70
17.57
17.38
18.14
19.75
21.98
24.49
26.88
28.75
29.81
29.89
28.98
27.16
24.68
21.82
18.93
16.26
13.94
11.94
10.10
8.20
6.08
3.74
1.28
-1.07
-3.14
-4.87
-6.35
-7.78
-9.38
-11.30
-13.50
-15.84
-18.13
-20.24
-22.16
-24.06
-26.16
-28.74
-31.96
-35.83
-40.09
-44.20
-47.34
-48.59
-47.11
-42.47
-34.73
-24.52
-12.91
-1.12
9.73
18.84
25.80
30.55
33.22
34.03
33.23
31.07
27.87
24.09
20.29
17.06
14.92
14.09
14.55
15.99
18.01
20.23
22.36
24.19
25.53
26.25
26.20
25.32
23.67
21.40
18.79
16.13
13.59
11.23
8.98
6.70
4.33
1.92
-0.39
-2.43
-4.13
-5.57
-6.90
-8.36
-10.09
-12.17
-14.54
-17.10
-19.70
-22.22
-24.58
-26.72
-28.71
-30.72
-33.06
-36.03
-39.83
-44.34
-49.06
-53.12
-55.48
-55.18
-51.63
-44.81
-35.24
-23.85
-11.74
0.02
10.56
19.24
25.71
29.95
32.13
32.61
31.79
30.01
27.60
24.88
22.21
19.98
18.54
18.09
18.65
20.01
21.88
23.93
25.92
27.61
28.84
29.42
29.22
28.17
26.33
23.91
21.24
18.63
16.35
14.46
12.85
11.26
9.41
7.14
4.48
1.65
-1.01
-3.25
-4.99
-6.36
-7.66
-9.17
-11.10
-13.49
-16.24
-19.13
-21.92
-24.40
-26.49
-28.30
-30.08
-32.24
-35.16
-39.02
-43.61
-48.31
-52.06
-53.76
-52.47
-47.78
-39.90
-29.61
-18.03
-6.34
4.42
13.54
20.65
25.67
28.73
30.09
30.06
28.93
27.00
24.57
22.03
19.75
18.07
17.22
17.19
17.85
19.01
20.50
22.22
24.03
25.71
26.97
27.48
27.04
25.67
23.58
21.14
18.65
16.31
14.20
12.27
10.45
8.65
6.77
4.76
2.61
0.39
-1.77
-3.74
-5.43
-6.87
-8.23
-9.69
-11.47
-13.70
-16.33
-19.20
-22.02
-24.51
-26.52
-28.12
-29.57
-31.34
-33.86
-37.38
-41.82
-46.66
-51.09
-54.08
-54.69
-52.23
-46.50
-37.81
-26.95
-15.03
-3.24
7.34
15.98
22.34
26.44
28.56
29.08
28.36
26.68
24.31
21.51
18.62
16.05
14.19
13.35
13.64
14.96
17.02
19.45
21.92
24.15
25.94
27.12
27.55
27.06
25.61
23.32
20.53
17.66
15.13
13.13
11.59
10.25
8.81
7.06
4.99
2.74
0.52
-1.49
-3.16
-4.51
-5.67
-6.87
-8.37
-10.38
-12.91
-15.80
-18.72
-21.32
-23.44
-25.11
-26.63
-28.39
-30.75
-33.93
-37.87
-42.25
-46.45
-49.61
-50.79
-49.21
-44.44
-36.61
-26.42
-14.94
-3.36
7.29
16.28
23.24
28.07
30.85
31.75
31.04
29.07
26.27
23.12
20.06
17.48
15.62
14.61
14.47
15.14
16.51
18.41
20.65
22.96
25.02
26.50
27.12
26.74
25.37
23.18
20.46
17.53
14.71
12.21
10.17
8.55
7.16
5.71
3.93
1.74
-0.73
-3.21
-5.40
-7.18
-8.63
-10.03
-11.67
-13.75
-16.24
-18.98
-21.73
-24.30
-26.65
-28.84
-31.09
-33.69
-36.91
-40.92
-45.63
-50.56
-54.88
-57.54
-57.53
-54.18
-47.40
-37.71
-26.14
-13.92
-2.18
8.23
16.88
23.61
28.46
31.55
32.99
32.95
31.69
29.56
27.03
24.55
22.52
21.19
20.67
20.91
21.82
23.24
25.00
26.87
28.57
29.85
30.47
30.36
29.51
28.07
26.21
24.10
21.90
19.68
17.49
15.35
13.25
11.17
9.05
6.89
4.67
2.44
0.27
-1.75
-3.59
-5.29
-6.95
-8.71
-10.70
-12.97
-15.46
-18.06
-20.56
-22.84
-24.89
-26.85
-29.01
-31.70
-35.20
-39.56
-44.48
-49.28
-52.99
-54.59
-53.22
-48.51
-40.62
-30.26
-18.47
-6.42
4.85
14.56
22.28
27.85
31.36
33.05
33.21
32.15
30.20
27.72
25.06
22.64
20.78
19.69
19.44
19.92
20.94
22.31
23.85
25.45
26.98
28.27
29.09
29.23
28.52
26.96
24.72
22.10
19.44
16.98
14.84
12.95
11.14
9.24
7.17
4.97
2.75
0.63
-1.33
-3.21
-5.13
-7.23
-9.57
-12.12
-14.75
-17.30
-19.66
-21.75
-23.61
-25.37
-27.20
-29.39
-32.20
-35.82
-40.19
-44.88
-49.10
-51.82
-52.04
-49.11
-42.94
-34.08
-23.47
-12.25
-1.41
8.33
16.54
23.01
27.63
30.36
31.23
30.42
28.27
25.27
21.99
18.97
16.61
15.11
14.52
14.77
15.73
17.24
19.11
21.11
22.95
24.32
25.00
24.84
23.90
22.31
20.25
17.92
15.46
12.97
10.52
8.19
6.02
4.05
2.29
0.70
-0.80
-2.33
-4.01
-5.92
-8.04
-10.33
-12.69
-15.04
-17.33
-19.53
-21.65
-23.71
-25.80
-28.11
-30.87
-34.27
-38.27
-42.52
-46.24
-48.48
-48.31
-45.14
-38.91
-30.10
-19.60
-8.50
2.15
11.51
19.03
24.50
27.94
29.58
29.73
28.66
26.66
23.99
21.00
18.05
15.57
13.87
13.11
13.26
14.18
15.63
17.39
19.23
20.90
22.12
22.62
22.25
20.97
18.96
16.49
13.85
11.30
8.96
6.87
4.94
3.06
1.13
-0.88
-2.92
-4.89
-6.72
-8.44
-10.20
-12.17
-14.51
-17.20
-20.07
-22.85
-25.27
-27.20
-28.74
-30.22
-32.08
-34.76
-38.45
-43.04
-47.95
-52.28
-54.96
-55.01
-51.80
-45.24
-35.81
-24.48
-12.46
-0.93
9.17
17.33
23.41
27.56
30.06
31.13
30.95
29.67
27.50
24.84
22.17
20.01
18.70
18.35
18.84
19.93
21.38
22.98
24.61
26.08
27.18
27.63
27.28
26.09
24.22
21.95
19.56
17.22
15.00
12.86
10.75
8.62
6.42
4.13
1.74
-0.67
-2.98
-5.03
-6.74
-8.14
-9.45
-10.98
-13.02
-15.67
-18.77
-21.98
-24.92
-27.34
-29.29
-31.08
-33.14
-35.90
-39.53
-43.83
-48.20
-51.74
-53.46
-52.58
-48.68
-41.88
-32.69
-21.94
-10.53
0.62
10.72
19.11
25.38
29.38
31.28
31.46
30.41
28.59
26.36
24.02
21.87
20.25
19.41
19.49
20.41
21.93
23.67
25.37
26.85
28.01
28.80
29.10
28.77
27.67
25.80
23.35
20.67
18.16
16.14
14.69
13.64
12.63
11.32
9.54
7.40
5.18
3.18
1.56
0.22
-1.13
-2.81
-5.04
-7.79
-10.85
-13.93
-16.80
-19.33
-21.53
-23.54
-25.54
-27.79
-30.55
-34.03
-38.26
-43.01
-47.65
-51.25
-52.79
-51.44
-46.83
-39.19
-29.28
-18.19
-7.02
3.28
12.10
19.16
24.42
27.95
29.87
30.28
29.31
27.17
24.18
20.83
17.67
15.17
13.69
13.34
14.03
15.53
17.57
19.87
22.14
24.10
25.46
26.02
25.65
24.37
22.37
19.93
17.36
14.91
12.73
10.84
9.11
7.39
5.55
3.52
1.34
-0.86
-2.98
-4.93
-6.75
-8.49
-10.22
-11.99
-13.81
-15.68
-17.60
-19.59
-21.62
-23.68
-25.79
-28.07
-30.76
-34.13
-38.28
-43.01
-47.72
-51.45
-53.14
-51.93
-47.41
-39.76
-29.65
-18.10
-6.24
4.89
14.47
22.00
27.25
30.27
31.29
30.68
28.87
26.32
23.48
20.74
18.41
16.69
15.73
15.59
16.30
17.78
19.87
22.25
24.52
26.27
27.14
26.97
25.84
23.96
21.66
19.22
16.84
14.58
12.41
10.25
8.03
5.69
3.21
0.64
-1.92
-4.35
-6.52
-8.40
-10.05
-11.70
-13.61
-15.99
-18.84
-21.98
-25.07
-27.84
-30.16
-32.20
-34.33
-36.99
-40.52
-44.95
-49.89
-54.50
-57.70
-58.39
-55.79
-49.69
-40.49
-29.13
-16.77
-4.57
6.53
15.92
23.26
28.49
31.71
33.19
33.26
32.31
30.65
28.58
26.39
24.37
22.84
22.07
22.19
23.16
24.79
26.76
28.74
30.44
31.62
32.12
31.79
30.65
28.79
26.48
23.99
21.53
19.17
16.86
14.50
12.05
9.53
7.04
4.70
2.53
0.49
-1.52
-3.64
-5.96
-8.56
-11.41
-14.39
-17.27
-19.85
-22.01
-23.87
-25.77
-28.16
-31.48
-35.92
-41.28
-46.91
-51.81
-54.84
-54.96
-51.56
-44.60
-34.64
-22.71
-10.07
2.05
12.69
21.27
27.55
31.63
33.77
34.27
33.43
31.54
28.92
25.92
22.99
20.53
18.87
18.14
18.31
19.20
20.57
22.18
23.80
25.22
26.23
26.66
26.37
25.35
23.63
21.35
18.70
15.89
13.09
10.46
8.08
5.95
4.05
2.26
0.48
-1.44
-3.56
-5.88
-8.36
-10.89
-13.37
-15.73
-17.90
-19.84
-21.58
-23.21
-25.01
-27.33
-30.52
-34.73
-39.71
-44.82
-49.02
-51.22
-50.50
-46.42
-39.13
-29.32
-18.06
-6.50
4.35
13.80
21.43
27.04
30.59
32.10
31.77
29.90
26.97
23.57
20.22
17.34
15.22
13.99
13.74
14.49
16.17
18.57
21.29
23.86
25.78
26.68
26.40
25.03
22.83
20.13
17.26
14.47
11.82
9.32
6.90
4.48
2.03
-0.45
-2.92
-5.37
-7.76
-10.12
-12.50
-14.97
-17.61
-20.45
-23.43
-26.37
-29.08
-31.44
-33.55
-35.76
-38.56
-42.28
-46.84
-51.59
-55.39
-56.99
-55.36
-50.07
-41.39
-30.20
-17.70
-5.10
6.53
16.48
24.31
29.84
33.18
34.57
34.43
33.18
31.24
28.92
26.47
24.15
22.22
20.94
20.52
21.03
22.35
24.19
26.16
27.91
29.12
29.61
29.28
28.18
26.43
24.25
21.87
19.52
17.35
15.34
13.38
11.28
8.85
6.04
2.92
-0.26
-3.26
-5.86
-8.04
-9.93
-11.81
-13.89
-16.29
-18.92
-21.62
-24.19
-26.57
-28.84
-31.21
-33.95
-37.29
-41.23
-45.48
-49.38
-51.97
-52.21
-49.33
-43.02
-33.68
-22.29
-10.12
1.55
11.82
20.19
26.52
30.89
33.44
34.34
33.79
32.14
29.80
27.28
24.99
23.25
22.15
21.69
21.75
22.26
23.15
24.34
25.74
27.10
28.16
28.57
28.12
26.78
24.77
22.46
20.22
18.25
16.47
14.58
12.23
9.27
5.85
2.38
-0.67
-2.98
-4.57
-5.75
-6.99
-8.69
-11.00
-13.77
-16.66
-19.32
-21.52
-23.26
-24.77
-26.40
-28.53
-31.49
-35.39
-40.10
-45.12
-49.59
-52.44
-52.63
-49.47
-42.90
-33.53
-22.44
-10.89
0.05
9.64
17.51
23.54
27.72
30.05
30.58
29.43
26.88
23.37
19.48
15.91
13.28
12.01
12.24
13.75
16.05
18.56
20.78
22.38
23.28
23.54
23.28
22.61
21.54
20.08
18.23
16.04
13.60
10.98
8.24
5.40
2.51
-0.32
-2.93
-5.12
-6.78
-8.00
-8.99
-10.09
-11.54
-13.46
-15.74
-18.19
-20.55
-22.71
-24.74
-26.91
-29.59
-33.03
-37.18
-41.56
-45.32
-47.43
-47.07
-43.77
-37.62
-29.13
-19.11
-8.41
2.14
11.79
19.96
26.18
30.21
32.01
31.75
29.79
26.62
22.78
18.88
15.51
13.14
12.09
12.38
13.76
15.78
17.90
19.69
20.87
21.42
21.42
21.00
20.23
19.10
17.56
15.60
13.27
10.71
8.06
5.47
3.01
0.74
-1.35
-3.29
-5.13
-6.96
-8.89
-10.99
-13.33
-15.89
-18.58
-21.26
-23.81
-26.12
-28.21
-30.23
-32.48
-35.31
-38.99
-43.44
-48.15
-52.17
-54.34
-53.65
-49.52
-42.02
-31.80
-19.93
-7.60
4.10
14.32
22.53
28.46
32.09
33.62
33.38
31.83
29.46
26.78
24.24
22.22
20.91
20.32
20.33
20.81
21.61
22.67
23.92
25.26
26.52
27.43
27.76
27.37
26.23
24.45
22.22
19.78
17.31
14.93
12.63
10.33
7.96
5.45
2.88
0.36
-1.96
-4.02
-5.84
-7.55
-9.36
-11.43
-13.87
-16.65
-19.59
-22.49
-25.16
-27.58
-29.90
-32.42
-35.45
-39.16
-43.33
-47.40
-50.44
-51.47
-49.69
-44.75
-36.86
-26.74
-15.41
-3.98
6.61
15.68
22.84
27.98
31.13
32.47
32.28
30.88
28.64
25.93
23.12
20.52
18.43
17.06
16.54
16.96
18.23
20.17
22.44
24.62
26.25
27.00
26.71
25.46
23.50
21.18
18.79
16.48
14.29
12.10
9.81
7.38
4.90
2.49
0.32
-1.57
-3.27
-4.93
-6.76
-8.85
-11.18
-13.61
-16.01
-18.26
-20.33
-22.26
-24.16
-26.17
-28.51
-31.39
-34.96
-39.07
-43.26
-46.68
-48.33
-47.34
-43.24
-36.14
-26.66
-15.78
-4.57
5.97
15.06
22.16
27.03
29.68
30.32
29.30
27.06
24.05
20.68
17.41
14.63
12.73
11.90
12.18
13.35
15.12
17.11
19.03
20.66
21.81
22.37
22.25
21.43
19.96
18.00
15.74
13.40
11.14
9.00
7.00
5.06
3.14
1.18
-0.84
-2.93
-5.14
-7.51
-10.08
-12.81
-15.56
-18.09
-20.17
-21.70
-22.81
-23.87
-25.41
-27.89
-31.53
-36.10
-40.94
-45.09
-47.51
-47.40
-44.37
-38.49
-30.27
-20.46
-9.90
0.55
10.14
18.25
24.43
28.46
30.37
30.42
29.01
26.57
23.56
20.41
17.57
15.40
14.17
13.98
14.71
16.11
17.84
19.58
21.11
22.26
22.90
22.92
22.25
20.87
18.87
16.44
13.81
11.19
8.69
6.29
3.97
1.68
-0.55
-2.68
-4.67
-6.54
-8.39
-10.32
-12.44
-14.74
-17.13
-19.49
-21.72
-23.77
-25.72
-27.73
-30.10
-33.12
-36.90
-41.26
-45.54
-48.75
-49.75
-47.66
-42.16
-33.63
-23.00
-11.52
-0.38
9.51
17.58
23.60
27.57
29.67
30.18
29.50
28.07
26.27
24.42
22.70
21.21
20.01
19.19
18.86
19.11
19.94
21.18
22.57
23.77
24.51
24.62
24.12
23.12
21.72
20.01
18.00
15.69
13.15
10.53
8.03
5.81
3.87
2.11
0.30
-1.73
-4.02
-6.48
-8.91
-11.16
-13.18
-15.01
-16.75
-18.47
-20.26
-22.22
-24.55
-27.49
-31.20
-35.55
-40.05
-43.84
-45.94
-45.54
-42.22
-36.09
-27.75
-18.04
-7.88
1.93
10.76
18.16
23.88
27.76
29.81
30.19
29.20
27.22
24.69
22.06
19.67
17.85
16.80
16.61
17.20
18.36
19.78
21.15
22.24
22.96
23.30
23.24
22.73
21.71
20.15
18.11
15.77
13.31
10.90
8.59
6.33
4.05
1.74
-0.53
-2.63
-4.43
-5.88
-7.08
-8.25
-9.65
-11.45
-13.62
-16.01
-18.33
-20.39
-22.22
-24.02
-26.15
-28.92
-32.38
-36.26
-39.94
-42.57
-43.32
-41.54
-37.00
-29.95
-21.08
-11.31
-1.62
7.19
14.54
20.15
23.94
25.92
26.24
25.15
23.00
20.23
17.29
14.61
12.49
11.10
10.52
10.72
11.62
13.08
14.91
16.83
18.57
19.85
20.46
20.33
19.47
18.01
16.09
13.88
11.53
9.14
6.81
4.58
2.48
0.52
-1.28
-2.91
-4.41
-5.84
-7.27
-8.77
-10.33
-11.91
-13.45
-14.95
-16.51
-18.24
-20.28
-22.70
-25.50
-28.62
-31.97
-35.32
-38.37
-40.64
-41.59
-40.67
-37.51
-32.02
-24.48
-15.51
-5.92
3.38
11.60
18.13
22.66
25.13
25.67
24.57
22.21
19.01
15.46
12.03
9.20
7.32
6.60
7.05
8.48
10.57
12.90
15.08
16.79
17.81
18.06
17.55
16.38
14.70
12.73
10.69
8.77
7.02
5.40
3.79
2.07
0.16
-1.86
-3.91
-5.90
-7.79
-9.62
-11.47
-13.38
-15.40
-17.52
-19.71
-21.91
-24.05
-26.08
-28.05
-30.13
-32.56
-35.59
-39.28
-43.38
-47.23
-49.92
-50.48
-48.21
-42.91
-34.98
-25.25
-14.82
-4.69
4.35
11.84
17.60
21.61
23.97
24.81
24.37
22.98
21.06
19.02
17.22
15.85
14.97
14.57
14.59
15.03
15.89
17.15
18.67
20.25
21.58
22.39
22.49
21.82
20.50
18.73
16.74
14.74
12.82
10.97
9.10
7.11
4.97
2.72
0.50
-1.58
-3.46
-5.23
-7.01
-8.98
-11.23
-13.76
-16.45
-19.12
-21.59
-23.73
-25.58
-27.35
-29.38
-32.04
-35.59
-40.03
-45.00
-49.75
-53.27
-54.55
-52.77
-47.64
-39.45
-29.02
-17.54
-6.19
4.03
12.56
19.15
23.85
26.82
28.27
28.40
27.46
25.76
23.67
21.57
19.84
18.77
18.52
19.09
20.37
22.13
24.10
26.06
27.78
29.11
29.91
30.07
29.52
28.25
26.36
24.07
21.63
19.25
17.06
15.07
13.20
11.33
9.39
7.34
5.22
3.10
1.08
-0.71
-2.21
-3.45
-4.58
-5.86
-7.56
-9.84
-12.63
-15.66
-18.55
-21.02
-23.02
-24.84
-26.91
-29.69
-33.39
-37.86
-42.58
-46.71
-49.34
-49.63
-47.03
-41.39
-33.02
-22.59
-11.05
0.54
11.26
20.36
27.43
32.27
34.93
35.57
34.45
31.91
28.38
24.38
20.49
17.26
15.10
14.25
14.70
16.25
18.56
21.22
23.81
25.97
27.41
27.96
27.59
26.41
24.65
22.58
20.49
18.51
16.70
14.97
13.17
11.14
8.81
6.21
3.52
0.98
-1.19
-2.92
-4.33
-5.67
-7.21
-9.15
-11.46
-13.98
-16.48
-18.79
-20.89
-22.88
-24.92
-27.24
-30.03
-33.40
-37.38
-41.68
-45.67
-48.43
-48.95
-46.44
-40.67
-31.99
-21.31
-9.77
1.54
11.76
20.34
26.99
31.59
34.12
34.66
33.37
30.59
26.79
22.58
18.63
15.52
13.64
13.10
13.76
15.30
17.38
19.69
21.96
23.92
25.34
26.00
25.79
24.75
23.05
20.89
18.48
15.98
13.47
11.01
8.63
6.32
4.07
1.84
-0.37
-2.58
-4.82
-7.15
-9.66
-12.42
-15.44
-18.59
-21.64
-24.34
-26.56
-28.34
-29.94
-31.74
-34.14
-37.41
-41.56
-46.27
-50.83
-54.31
-55.69
-54.18
-49.38
-41.41
-30.93
-18.93
-6.60
4.95
14.82
22.48
27.81
31.00
32.43
32.54
31.65
29.96
27.68
25.03
22.39
20.18
18.79
18.43
19.05
20.45
22.32
24.34
26.23
27.77
28.73
28.96
28.36
26.98
24.97
22.61
20.15
17.78
15.52
13.25
10.83
8.17
5.30
2.40
-0.31
-2.68
-4.67
-6.42
-8.14
-10.05
-12.28
-14.80
-17.50
-20.17
-22.65
-24.87
-26.95
-29.10
-31.61
-34.74
-38.52
-42.67
-46.56
-49.32
-49.99
-47.82
-42.46
-34.10
-23.46
-11.66
0.03
10.51
19.01
25.24
29.30
31.51
32.29
31.94
30.71
28.78
26.37
23.73
21.20
19.07
17.58
16.87
17.01
17.96
19.61
21.73
23.98
25.96
27.26
27.61
26.92
25.24
22.79
19.90
16.91
14.11
11.70
9.70
8.06
6.60
5.16
3.60
1.85
-0.08
-2.16
-4.36
-6.69
-9.12
-11.67
-14.28
-16.88
-19.37
-21.65
-23.65
-25.41
-27.08
-28.99
-31.47
-34.78
-38.83
-43.14
-46.77
-48.59
-47.62
-43.31
-35.82
-25.93
-14.82
-3.74
6.31
14.71
21.24
25.90
28.77
29.93
29.46
27.49
24.37
20.57
16.75
13.52
11.34
10.44
10.77
12.07
14.04
16.37
18.80
21.07
22.93
24.10
24.38
23.70
22.20
20.16
17.89
15.61
13.34
11.01
8.51
5.85
3.20
0.75
-1.31
-3.02
-4.53
-6.08
-7.86
-9.92
-12.17
-14.47
-16.65
-18.62
-20.40
-22.09
-23.90
-26.04
-28.77
-32.21
-36.29
-40.60
-44.47
-47.00
-47.32
-44.80
-39.22
-30.92
-20.72
-9.75
0.81
10.02
17.34
22.62
25.98
27.65
27.86
26.82
24.76
22.04
19.12
16.48
14.54
13.47
13.30
13.91
15.16
16.89
18.91
21.01
22.88
24.21
24.74
24.36
23.10
21.15
18.75
16.20
13.74
11.49
9.46
7.55
5.61
3.51
1.24
-1.10
-3.36
-5.47
-7.44
-9.42
-11.59
-14.03
-16.70
-19.41
-21.92
-24.06
-25.82
-27.35
-28.95
-30.94
-33.63
-37.19
-41.53
-46.28
-50.74
-53.96
-54.94
-52.91
-47.55
-39.09
-28.33
-16.37
-4.39
6.58
15.83
22.94
27.78
30.42
31.13
30.33
28.55
26.29
23.97
21.86
20.10
18.72
17.78
17.38
17.61
18.56
20.16
22.21
24.38
26.28
27.58
28.07
27.68
26.47
24.58
22.19
19.53
16.80
14.20
11.82
9.64
7.51
5.27
2.81
0.19
-2.41
-4.74
-6.65
-8.17
-9.51
-10.93
-12.67
-14.80
-17.26
-19.88
-22.48
-24.91
-27.17
-29.32
-31.61
-34.32
-37.68
-41.69
-45.97
-49.71
-51.89
-51.47
-47.83
-40.91
-31.33
-20.11
-8.45
2.55
12.12
19.84
25.56
29.32
31.25
31.57
30.53
28.46
25.76
22.86
20.22
18.22
17.10
16.95
17.69
19.09
20.91
22.86
24.73
26.31
27.43
27.94
27.76
26.84
25.25
23.12
20.68
18.15
15.70
13.43
11.34
9.32
7.27
5.12
2.93
0.82
-1.04
-2.57
-3.80
-4.94
-6.27
-8.02
-10.28
-12.93
-15.71
-18.33
-20.59
-22.51
-24.32
-26.39
-29.10
-32.69
-37.13
-42.00
-46.55
-49.80
-50.75
-48.65
-43.21
-34.71
-24.03
-12.38
-1.01
9.06
17.27
23.44
27.66
30.11
30.96
30.33
28.46
25.71
22.59
19.68
17.41
16.03
15.57
15.91
16.92
18.49
20.52
22.88
25.27
27.31
28.55
28.70
27.65
25.60
22.91
19.99
17.18
14.66
12.47
10.54
8.76
6.96
5.06
3.00
0.85
-1.28
-3.22
-4.92
-6.45
-8.00
-9.75
-11.78
-13.99
-16.19
-18.20
-19.97
-21.62
-23.40
-25.59
-28.41
-31.96
-36.08
-40.33
-43.94
-45.98
-45.53
-42.02
-35.41
-26.24
-15.53
-4.43
6.02
15.12
22.47
27.93
31.46
33.07
32.83
30.92
27.72
23.81
19.84
16.46
14.13
13.05
13.14
14.17
15.79
17.72
19.72
21.61
23.20
24.29
24.71
24.32
23.10
21.21
18.88
16.37
13.88
11.50
9.23
6.99
4.69
2.31
-0.10
-2.44
-4.60
-6.52
-8.21
-9.80
-11.46
-13.36
-15.59
-18.10
-20.71
-23.22
-25.50
-27.53
-29.51
-31.74
-34.58
-38.24
-42.61
-47.20
-51.17
-53.48
-53.19
-49.77
-43.17
-33.88
-22.77
-10.88
0.75
11.27
20.07
26.79
31.38
33.93
34.70
33.98
32.09
29.40
26.34
23.38
20.96
19.36
18.67
18.79
19.53
20.71
22.16
23.74
25.24
26.36
26.80
26.36
25.04
23.04
20.66
18.18
15.77
13.45
11.16
8.88
6.60
4.38
2.28
0.33
-1.50
-3.27
-5.04
-6.93
-9.00
-11.29
-13.79
-16.40
-18.96
-21.32
-23.43
-25.32
-27.22
-29.40
-32.15
-35.61
-39.69
-43.98
-47.72
-49.94
-49.69
-46.35
-39.82
-30.62
-19.72
-8.27
2.70
12.42
20.47
26.63
30.84
33.12
33.59
32.50
30.23
27.23
23.97
20.89
18.38
16.72
16.05
16.38
17.51
19.14
20.94
22.67
24.13
25.18
25.66
25.36
24.15
22.04
19.31
16.40
13.72
11.53
9.78
8.19
6.45
4.38
2.03
-0.39
-2.64
-4.58
-6.29
-7.93
-9.64
-11.54
-13.60
-15.75
-17.93
-20.07
-22.17
-24.25
-26.40
-28.75
-31.50
-34.74
-38.38
-41.99
-44.81
-45.92
-44.50
-40.13
-32.97
-23.71
-13.33
-2.88
6.80
15.15
21.88
26.84
30.01
31.43
31.24
29.74
27.35
24.55
21.81
19.50
17.88
17.04
17.01
17.70
18.93
20.46
22.01
23.30
24.15
24.46
24.25
23.56
22.43
20.87
18.88
16.51
13.87
11.13
8.46
5.96
3.67
1.60
-0.29
-2.01
-3.64
-5.27
-7.07
-9.15
-11.57
-14.22
-16.85
-19.19
-21.06
-22.47
-23.68
-25.09
-27.13
-30.06
-33.83
-38.08
-42.12
-45.11
-46.19
-44.68
-40.29
-33.15
-23.89
-13.46
-2.97
6.57
14.44
20.29
24.10
26.08
26.50
25.65
23.75
21.07
17.95
14.79
12.02
10.07
9.18
9.48
10.81
12.89
15.28
17.54
19.30
20.33
20.56
20.03
18.89
17.28
15.36
13.26
11.11
9.00
7.00
5.11
3.32
1.54
-0.29
-2.20
-4.16
-6.14
-8.11
-10.05
-11.97
-13.88
-15.77
-17.56
-19.23
-20.78
-22.32
-24.07
-26.28
-29.15
-32.68
-36.59
-40.32
-43.10
-44.11
-42.76
-38.80
-32.40
-24.10
-14.65
-4.87
4.44
12.59
19.05
23.48
25.81
26.25
25.20
23.18
20.66
18.01
15.56
13.55
12.23
11.80
12.29
13.59
15.39
17.32
19.05
20.33
21.01
21.00
20.24
18.75
16.67
14.26
11.83
9.68
7.87
6.30
4.74
2.98
0.96
-1.26
-3.48
-5.59
-7.57
-9.53
-11.60
-13.83
-16.19
-18.54
-20.80
-22.95
-25.06
-27.26
-29.69
-32.47
-35.64
-39.17
-42.81
-46.10
-48.35
-48.77
-46.69
-41.74
-34.07
-24.32
-13.50
-2.72
7.03
15.08
21.10
25.06
27.11
27.52
26.58
24.64
22.08
19.31
16.69
14.54
13.03
12.25
12.21
12.88
14.19
15.99
18.06
20.09
21.72
22.65
22.72
21.95
20.52
18.67
16.66
14.58
12.48
10.30
8.04
5.76
3.53
1.46
-0.47
-2.32
-4.24
-6.33
-8.59
-10.99
-13.42
-15.79
-18.01
-20.05
-21.96
-23.91
-26.16
-29.01
-32.63
-36.94
-41.50
-45.57
-48.24
-48.72
-46.47
-41.38
-33.76
-24.31
-13.90
-3.48
6.09
14.19
20.46
24.83
27.42
28.51
28.41
27.39
25.71
23.52
21.04
18.53
16.31
14.75
14.10
14.46
15.71
17.50
19.42
21.11
22.34
22.99
23.02
22.42
21.17
19.31
16.98
14.37
11.74
9.26
7.02
4.99
3.07
1.13
-0.92
-3.10
-5.38
-7.69
-9.97
-12.14
-14.18
-16.13
-18.04
-20.03
-22.24
-24.83
-27.95
-31.64
-35.75
-39.84
-43.17
-44.82
-43.95
-40.08
-33.28
-24.20
-13.89
-3.49
6.01
13.99
20.17
24.51
27.10
28.03
27.44
25.51
22.59
19.12
15.65
12.69
10.63
9.66
9.84
11.06
13.14
15.81
18.65
21.18
22.95
23.62
23.13
21.63
19.43
16.86
14.16
11.45
8.80
6.24
3.80
1.53
-0.56
-2.49
-4.32
-6.19
-8.19
-10.38
-12.74
-15.17
-17.52
-19.67
-21.61
-23.50
-25.65
-28.40
-31.94
-36.20
-40.70
-44.63
-46.99
-46.85
-43.59
-37.11
-27.89
-16.89
-5.34
5.54
14.83
21.96
26.80
29.53
30.50
30.07
28.54
26.20
23.40
20.54
18.09
16.45
15.83
16.17
17.24
18.72
20.31
21.82
23.13
24.11
24.59
24.47
23.70
22.33
20.53
18.41
16.07
13.52
10.80
7.98
5.24
2.75
0.66
-1.07
-2.58
-4.08
-5.82
-7.94
-10.48
-13.33
-16.31
-19.17
-21.71
-23.86
-25.67
-27.39
-29.38
-32.02
-35.53
-39.89
-44.62
-48.82
-51.35
-51.08
-47.33
-40.08
-30.05
-18.46
-6.68
4.17
13.32
20.43
25.46
28.53
29.88
29.84
28.80
27.16
25.25
23.32
21.53
20.09
19.17
18.95
19.52
20.80
22.54
24.41
26.06
27.23
27.76
27.61
26.81
25.41
23.53
21.27
18.76
16.13
13.50
10.95
8.51
6.19
3.97
1.90
0.00
-1.71
-3.31
-4.96
-6.87
-9.19
-11.89
-14.77
-17.50
-19.78
-21.50
-22.76
-23.88
-25.25
-27.23
-30.08
-33.84
-38.26
-42.73
-46.37
-48.14
-47.20
-43.07
-35.90
-26.34
-15.43
-4.28
6.11
15.01
21.97
26.79
29.54
30.44
29.89
28.31
26.13
23.69
21.29
19.18
17.56
16.58
16.31
16.73
17.71
19.08
20.66
22.24
23.63
24.66
25.13
24.91
23.89
22.06
19.55
16.57
13.46
10.56
8.10
6.18
4.72
3.57
2.54
1.47
0.27
-1.17
-2.94
-5.09
-7.59
-10.28
-12.93
-15.31
-17.33
-19.03
-20.59
-22.18
-24.01
-26.22
-28.95
-32.23
-35.96
-39.79
-43.06
-44.97
-44.72
-41.79
-36.08
-27.96
-18.18
-7.69
2.52
11.62
19.04
24.53
28.09
29.88
30.18
29.27
27.42
24.89
21.91
18.74
15.72
13.21
11.61
11.19
12.04
13.99
16.59
19.33
21.71
23.40
24.21
24.07
23.00
21.11
18.62
15.90
13.32
11.11
9.32
7.75
6.12
4.25
2.08
-0.29
-2.70
-5.04
-7.29
-9.47
-11.64
-13.81
-15.99
-18.13
-20.21
-22.18
-24.13
-26.18
-28.54
-31.38
-34.78
-38.54
-42.16
-44.90
-45.89
-44.36
-39.91
-32.60
-23.04
-12.26
-1.45
8.37
16.49
22.63
26.85
29.35
30.34
29.95
28.35
25.82
22.72
19.55
16.77
14.74
13.65
13.53
14.28
15.75
17.72
19.89
21.93
23.48
24.19
23.85
22.48
20.26
17.59
14.88
12.46
10.45
8.77
7.18
5.42
3.35
0.95
-1.63
-4.19
-6.56
-8.67
-10.57
-12.41
-14.33
-16.41
-18.62
-20.82
-22.90
-24.81
-26.66
-28.65
-30.98
-33.82
-37.15
-40.83
-44.51
-47.70
-49.73
-49.89
-47.57
-42.47
-34.72
-24.90
-13.92
-2.86
7.31
15.85
22.37
26.75
29.14
29.87
29.31
27.81
25.68
23.21
20.70
18.46
16.80
15.91
15.85
16.55
17.82
19.48
21.32
23.13
24.64
25.59
25.73
24.95
23.34
21.17
18.79
16.52
14.51
12.73
11.03
9.22
7.18
4.93
2.57
0.29
-1.80
-3.68
-5.49
-7.37
-9.48
-11.85
-14.38
-16.89
-19.21
-21.24
-23.02
-24.67
-26.42
-28.50
-31.11
-34.34
-38.05
-41.86
-45.10
-46.90
-46.42
-43.05
-36.66
-27.66
-16.94
-5.63
5.10
14.33
21.51
26.51
29.46
30.68
30.52
29.30
27.30
24.82
22.20
19.81
17.98
16.97
16.89
17.67
19.13
20.97
22.86
24.48
25.62
26.13
26.00
25.27
24.01
22.30
20.28
18.07
15.84
13.66
11.54
9.38
7.10
4.71
2.33
0.19
-1.59
-3.04
-4.37
-5.89
-7.82
-10.17
-12.76
-15.30
-17.55
-19.47
-21.14
-22.82
-24.77
-27.23
-30.37
-34.14
-38.27
-42.18
-45.06
-46.01
-44.37
-39.87
-32.74
-23.64
-13.49
-3.22
6.34
14.56
20.99
25.38
27.69
28.11
27.01
24.86
22.10
19.06
16.02
13.26
11.11
9.88
9.80
10.88
12.85
15.26
17.63
19.56
20.86
21.47
21.39
20.61
19.15
17.10
14.65
12.07
9.62
7.41
5.44
3.58
1.70
-0.25
-2.27
-4.27
-6.25
-8.22
-10.27
-12.43
-14.64
-16.80
-18.75
-20.48
-22.07
-23.79
-25.97
-28.86
-32.56
-36.81
-41.07
-44.50
-46.22
-45.46
-41.89
-35.61
-27.15
-17.31
-6.98
3.03
12.03
19.47
24.96
28.28
29.43
28.67
26.47
23.38
19.97
16.72
13.98
12.02
10.96
10.87
11.65
13.17
15.16
17.32
19.32
20.84
21.65
21.62
20.76
19.20
17.16
14.83
12.36
9.83
7.30
4.82
2.47
0.35
-1.55
-3.32
-5.14
-7.24
-9.74
-12.58
-15.57
-18.43
-20.97
-23.13
-25.03
-26.91
-29.01
-31.56
-34.69
-38.40
-42.45
-46.30
-49.13
-49.95
-47.98
-42.85
-34.80
-24.65
-13.51
-2.54
7.40
15.73
22.25
26.91
29.77
30.95
30.62
29.03
26.57
23.72
20.97
18.75
17.32
16.77
17.05
18.01
19.48
21.25
23.11
24.77
25.98
26.46
26.08
24.85
22.90
20.50
17.93
15.39
12.99
10.73
8.51
6.24
3.88
1.47
-0.90
-3.14
-5.23
-7.24
-9.24
-11.34
-13.56
-15.83
-18.06
-20.16
-22.13
-24.05
-26.13
-28.62
-31.72
-35.45
-39.52
-43.34
-46.07
-46.85
-44.98
-40.15
-32.51
-22.73
-11.82
-0.90
9.00
17.20
23.36
27.51
29.88
30.76
30.44
29.16
27.16
24.69
22.09
19.70
17.83
16.69
16.39
16.89
18.08
19.76
21.69
23.58
25.12
26.01
26.03
25.12
23.40
21.11
18.58
16.06
13.68
11.48
9.39
7.36
5.37
3.41
1.48
-0.45
-2.42
-4.46
-6.57
-8.70
-10.80
-12.85
-14.82
-16.73
-18.62
-20.57
-22.73
-25.26
-28.34
-32.01
-36.10
-40.14
-43.35
-44.81
-43.68
-39.49
-32.37
-22.99
-12.43
-1.90
7.64
15.58
21.65
25.87
28.32
29.06
28.20
25.95
22.68
18.96
15.43
12.68
11.10
10.82
11.73
13.54
15.85
18.24
20.35
21.91
22.76
22.85
22.21
20.90
19.05
16.79
14.32
11.83
9.48
7.35
5.38
3.44
1.42
-0.76
-3.06
-5.37
-7.57
-9.61
-11.46
-13.15
-14.71
-16.17
-17.56
-18.99
-20.61
-22.63
-25.28
-28.62
-32.51
-36.44
-39.66
-41.27
-40.52
-37.05
-30.97
-22.88
-13.63
-4.18
4.68
12.35
18.45
22.79
25.34
26.13
25.37
23.36
20.53
17.37
14.38
11.96
10.37
9.72
9.98
11.07
12.81
14.93
17.11
18.98
20.20
20.58
20.08
18.85
17.13
15.14
13.02
10.83
8.60
6.32
4.04
1.79
-0.41
-2.50
-4.48
-6.32
-8.06
-9.82
-11.74
-13.93
-16.40
-18.99
-21.48
-23.67
-25.51
-27.20
-29.06
-31.47
-34.67
-38.56
-42.70
-46.30
-48.44
-48.25
-45.20
-39.27
-30.93
-21.03
-10.58
-0.49
8.52
15.99
21.67
25.48
27.48
27.86
26.95
25.11
22.78
20.35
18.15
16.43
15.36
14.97
15.23
16.05
17.37
19.07
20.96
22.79
24.21
24.85
24.52
23.20
21.15
18.70
16.23
13.96
11.95
10.12
8.32
6.40
4.31
2.04
-0.33
-2.72
-5.03
-7.18
-9.15
-10.97
-12.71
-14.49
-16.39
-18.45
-20.61
-22.84
-25.10
-27.45
-30.01
-32.92
-36.21
-39.70
-42.96
-45.32
-46.02
-44.39
-40.04
-33.01
-23.84
-13.43
-2.85
6.92
15.20
21.66
26.22
28.98
30.06
29.59
27.83
25.18
22.20
19.47
17.46
16.33
16.05
16.44
17.33
18.63
20.28
22.19
24.10
25.65
26.43
26.20
24.96
22.97
20.60
18.23
16.12
14.35
12.85
11.42
9.90
8.16
6.14
3.93
1.69
-0.41
-2.24
-3.82
-5.26
-6.73
-8.40
-10.34
-12.54
-14.91
-17.32
-19.64
-21.79
-23.77
-25.75
-28.03
-30.92
-34.56
-38.74
-42.78
-45.69
-46.47
-44.40
-39.34
-31.71
-22.35
-12.26
-2.38
6.55
14.04
19.80
23.71
25.84
26.37
25.58
23.80
21.34
18.55
15.79
13.44
11.85
11.25
11.74
13.16
15.23
17.54
19.70
21.43
22.59
23.10
22.94
22.12
20.63
18.55
16.07
13.44
10.92
8.70
6.78
5.04
3.33
1.52
-0.40
-2.37
-4.32
-6.24
-8.18
-10.23
-12.39
-14.59
-16.68
-18.54
-20.08
-21.44
-22.86
-24.68
-27.22
-30.61
-34.69
-38.97
-42.72
-45.04
-45.16
-42.58
-37.22
-29.46
-20.03
-9.89
0.02
8.87
16.16
21.62
25.23
27.08
27.34
26.17
23.87
20.81
17.52
14.54
12.33
11.20
11.16
12.04
13.53
15.33
17.20
18.98
20.55
21.75
22.39
22.28
21.33
19.57
17.19
14.49
11.74
9.12
6.67
4.35
2.14
0.03
-1.94
-3.75
-5.46
-7.21
-9.15
-11.38
-13.85
-16.41
-18.86
-21.07
-23.02
-24.82
-26.68
-28.89
-31.69
-35.19
-39.26
-43.45
-47.04
-49.16
-49.02
-46.10
-40.29
-31.91
-21.68
-10.57
0.35
10.10
17.93
23.46
26.69
27.95
27.75
26.60
24.91
22.96
20.90
18.88
17.08
15.71
15.03
15.21
16.33
18.24
20.61
22.97
24.84
25.88
25.96
25.18
23.72
21.83
19.66
17.32
14.92
12.55
10.31
8.25
6.34
4.48
2.54
0.42
-1.86
-4.22
-6.55
-8.81
-11.02
-13.22
-15.43
-17.64
-19.83
-22.01
-24.30
-26.97
-30.31
-34.46
-39.25
-44.00
-47.70
-49.19
-47.54
-42.37
-34.02
-23.45
-11.94
-0.78
9.08
17.04
22.93
26.77
28.73
29.07
28.07
26.13
23.65
21.05
18.68
16.82
15.62
15.18
15.54
16.65
18.35
20.34
22.31
23.90
24.87
25.12
24.65
23.58
22.02
20.08
17.82
15.32
12.67
9.99
7.47
5.21
3.29
1.66
0.17
-1.39
-3.16
-5.24
-7.58
-10.03
-12.39
-14.53
-16.39
-18.07
-19.77
-21.72
-24.18
-27.32
-31.14
-35.43
-39.65
-42.99
-44.55
-43.57
-39.65
-32.92
-23.98
-13.78
-3.34
6.41
14.78
21.31
25.81
28.26
28.83
27.80
25.53
22.43
18.94
15.54
12.71
10.90
10.39
11.23
13.19
15.84
18.63
21.07
22.86
23.80
23.89
23.17
21.71
19.61
16.99
14.02
10.91
7.89
5.09
2.61
0.39
-1.68
-3.75
-5.97
-8.43
-11.10
-13.89
-16.61
-19.12
-21.33
-23.29
-25.16
-27.21
-29.69
-32.81
-36.59
-40.85
-45.12
-48.63
-50.45
-49.66
-45.66
-38.37
-28.35
-16.70
-4.77
6.21
15.38
22.38
27.26
30.24
31.60
31.54
30.26
28.01
25.17
22.26
19.80
18.19
17.63
18.11
19.43
21.32
23.46
25.51
27.15
28.10
28.18
27.34
25.72
23.52
21.03
18.45
15.87
13.31
10.74
8.12
5.43
2.69
-0.06
-2.83
-5.57
-8.26
-10.84
-13.29
-15.62
-17.85
-20.04
-22.22
-24.40
-26.58
-28.84
-31.38
-34.43
-38.18
-42.57
-47.18
-51.23
-53.71
-53.68
-50.53
-44.16
-35.01
-23.95
-12.04
-0.35
10.22
19.02
25.69
30.16
32.57
33.24
32.52
30.82
28.48
25.89
23.35
21.17
19.62
18.87
19.00
19.98
21.66
23.83
26.18
28.33
29.91
30.61
30.29
29.04
27.08
24.77
22.36
20.02
17.74
15.44
13.05
10.50
7.83
5.12
2.49
0.04
-2.19
-4.25
-6.24
-8.31
-10.61
-13.17
-15.94
-18.75
-21.37
-23.66
-25.62
-27.42
-29.44
-32.07
-35.56
-39.89
-44.57
-48.75
-51.34
-51.33
-48.07
-41.45
-32.01
-20.72
-8.79
2.62
12.62
20.66
26.54
30.28
32.00
31.90
30.28
27.54
24.23
20.93
18.17
16.26
15.31
15.23
15.89
17.17
18.96
21.15
23.49
25.63
27.16
27.70
27.11
25.45
23.00
20.14
17.24
14.51
12.08
9.89
7.90
6.02
4.21
2.46
0.72
-1.08
-2.99
-5.02
-7.14
-9.26
-11.32
-13.33
-15.35
-17.44
-19.63
-21.92
-24.26
-26.69
-29.36
-32.45
-36.06
-39.99
-43.66
-46.16
-46.53
-44.06
-38.53
-30.33
-20.27
-9.36
1.41
11.22
19.47
25.75
29.80
31.60
31.34
29.40
26.31
22.64
18.93
15.69
13.30
12.03
11.97
12.96
14.67
16.71
18.72
20.47
21.84
22.75
23.09
22.75
21.65
19.83
17.47
14.84
12.15
9.54
7.00
4.50
2.01
-0.43
-2.77
-5.03
-7.33
-9.80
-12.52
-15.44
-18.34
-21.01
-23.33
-25.34
-27.22
-29.20
-31.46
-34.12
-37.25
-40.89
-44.91
-48.91
-52.15
-53.63
-52.38
-47.80
-39.94
-29.50
-17.64
-5.64
5.41
14.80
22.20
27.49
30.73
31.99
31.47
29.50
26.56
23.27
20.25
17.96
16.64
16.26
16.64
17.55
18.82
20.37
22.12
23.94
25.58
26.73
27.07
26.44
24.91
22.71
20.17
17.55
14.98
12.42
9.79
7.08
4.34
1.71
-0.69
-2.85
-4.92
-7.08
-9.49
-12.17
-14.93
-17.55
-19.80
-21.67
-23.37
-25.26
-27.72
-30.99
-35.04
-39.49
-43.66
-46.68
-47.71
-46.06
-41.46
-34.04
-24.41
-13.45
-2.20
8.34
17.41
24.50
29.43
32.23
33.12
32.38
30.38
27.50
24.19
20.96
18.30
16.61
16.05
16.54
17.75
19.29
20.82
22.12
23.10
23.70
23.86
23.45
22.35
20.57
18.22
15.52
12.70
9.97
7.41
5.06
2.90
0.84
-1.19
-3.28
-5.53
-7.92
-10.37
-12.72
-14.86
-16.72
-18.39
-20.06
-22.01
-24.51
-27.76
-31.74
-36.15
-40.34
-43.40
-44.39
-42.59
-37.73
-30.14
-20.60
-10.22
-0.08
8.94
16.27
21.72
25.31
27.18
27.46
26.30
23.87
20.51
16.72
13.13
10.33
8.72
8.43
9.29
11.05
13.39
16.01
18.57
20.71
22.04
22.25
21.23
19.08
16.13
12.78
9.39
6.21
3.35
0.79
-1.54
-3.77
-6.02
-8.37
-10.86
-13.43
-15.99
-18.43
-20.71
-22.91
-25.23
-27.90
-31.16
-35.03
-39.30
-43.44
-46.70
-48.18
-47.13
-43.14
-36.27
-27.09
-16.54
-5.69
4.48
13.27
20.27
25.32
28.41
29.58
29.02
27.02
24.04
20.65
17.41
14.73
12.88
11.96
12.00
12.96
14.71
16.97
19.33
21.27
22.33
22.28
21.11
19.06
16.44
13.55
10.61
7.72
4.93
2.21
-0.49
-3.24
-6.11
-9.08
-12.03
-14.84
-17.36
-19.67
-21.99
-24.68
-28.10
-32.35
-37.14
-41.76
-45.17
-46.31
-44.40
-39.18
-31.04
-20.89
-9.88
0.82
10.36
18.21
24.21
28.37
30.81
31.64
30.96
28.96
25.96
22.43
18.92
15.94
13.88
12.90
12.97
13.87
15.30
16.89
18.32
19.26
19.49
18.91
17.51
15.40
12.76
9.77
6.60
3.43
0.43
-2.29
-4.69
-6.86
-9.00
-11.32
-13.99
-17.07
-20.53
-24.30
-28.25
-32.17
-35.64
-38.01
-38.50
-36.45
-31.53
-23.98
-14.54
-4.29
5.65
14.45
21.61
26.97
30.60
32.58
33.01
31.99
29.72
26.59
23.16
20.04
17.73
16.55
16.49
17.30
18.60
19.96
21.03
21.55
21.42
20.63
19.28
17.49
15.33
12.88
10.15
7.19
4.04
0.76
-2.60
-5.98
-9.29
-12.41
-15.25
-17.79
-20.16
-22.65
-25.57
-29.07
-32.99
-36.75
-39.44
-40.03
-37.76
-32.38
-24.28
-14.38
-3.87
6.13
14.80
21.70
26.68
29.74
30.94
30.34
28.19
24.89
21.06
17.34
14.27
12.14
11.00
10.72
11.12
12.06
13.44
15.12
16.87
18.31
19.04
18.79
17.48
15.33
12.71
10.00
7.47
5.19
3.09
0.98
-1.29
-3.83
-6.69
-9.77
-12.89
-15.79
-18.24
-20.14
-21.59
-22.95
-24.68
-27.17
-30.61
-34.83
-39.31
-43.23
-45.66
-45.75
-42.94
-37.16
-28.85
-18.86
-8.28
1.87
10.75
17.88
23.04
26.24
27.58
27.23
25.44
22.56
19.06
15.47
12.31
10.00
8.79
8.76
9.83
11.77
14.25
16.88
19.22
20.90
21.62
21.25
19.81
17.44
14.42
11.07
7.72
4.60
1.83
-0.60
-2.82
-4.99
-7.27
-9.70
-12.27
-14.87
-17.39
-19.75
-21.94
-24.14
-26.58
-29.54
-33.17
-37.31
-41.46
-44.78
-46.29
-45.19
-41.08
-34.07
-24.79
-14.19
-3.33
6.88
15.75
22.84
27.95
31.02
32.07
31.23
28.80
25.21
21.08
17.09
13.84
11.76
11.02
11.46
12.74
14.40
16.11
17.61
18.81
19.67
20.09
19.95
19.10
17.44
15.02
12.03
8.77
5.58
2.74
0.32
-1.77
-3.77
-5.94
-8.42
-11.17
-14.01
-16.71
-19.10
-21.19
-23.10
-25.03
-27.15
-29.64
-32.63
-36.20
-40.27
-44.42
-47.88
-49.63
-48.65
-44.36
-36.84
-26.83
-15.55
-4.28
5.96
14.56
21.30
26.22
29.40
30.91
30.80
29.22
26.51
23.17
19.86
17.15
15.44
14.80
15.10
16.03
17.31
18.73
20.15
21.46
22.46
22.93
22.68
21.67
19.98
17.80
15.36
12.77
10.11
7.38
4.66
2.03
-0.38
-2.55
-4.59
-6.69
-9.06
-11.73
-14.55
-17.20
-19.38
-20.99
-22.21
-23.44
-25.14
-27.69
-31.21
-35.48
-39.96
-43.84
-46.22
-46.29
-43.51
-37.80
-29.56
-19.61
-8.94
1.45
10.82
18.67
24.74
28.95
31.26
31.76
30.69
28.39
25.36
22.14
19.23
17.01
15.65
15.22
15.64
16.73
18.29
20.04
21.73
23.11
23.98
24.22
23.78
22.67
20.96
18.73
16.14
13.34
10.51
7.78
5.28
3.04
1.05
-0.80
-2.65
-4.65
-6.92
-9.52
-12.34
-15.21
-17.91
-20.24
-22.07
-23.40
-24.39
-25.33
-26.65
-28.81
-32.07
-36.32
-40.99
-45.04
-47.27
-46.67
-42.71
-35.55
-25.93
-15.04
-4.15
5.68
13.78
19.95
24.28
26.99
28.27
28.17
26.71
24.00
20.37
16.41
12.83
10.25
9.06
9.30
10.71
12.87
15.32
17.68
19.69
21.17
22.04
22.23
21.69
20.40
18.45
16.06
13.48
10.96
8.65
6.53
4.55
2.63
0.78
-1.00
-2.74
-4.54
-6.57
-8.92
-11.50
-14.04
-16.20
-17.79
-18.86
-19.80
-21.12
-23.28
-26.51
-30.61
-35.04
-38.99
-41.51
-41.80
-39.35
-34.08
-26.37
-16.98
-6.86
3.00
11.81
18.96
24.17
27.34
28.60
28.18
26.42
23.71
20.45
17.03
13.83
11.20
9.44
8.74
9.18
10.60
12.72
15.13
17.40
19.21
20.30
20.54
19.86
18.27
15.87
12.92
9.74
6.70
4.09
1.97
0.22
-1.42
-3.19
-5.31
-7.80
-10.57
-13.47
-16.29
-18.87
-21.09
-22.92
-24.44
-25.91
-27.64
-29.96
-33.11
-37.12
-41.70
-46.24
-49.83
-51.48
-50.30
-45.81
-38.08
-27.80
-16.09
-4.21
6.71
15.90
22.98
27.89
30.77
31.83
31.33
29.60
27.00
23.96
20.91
18.25
16.29
15.21
15.05
15.70
16.93
18.43
19.91
21.11
21.88
22.13
21.85
21.07
19.86
18.23
16.21
13.78
10.99
7.95
4.89
2.05
-0.41
-2.51
-4.45
-6.47
-8.77
-11.34
-14.05
-16.65
-18.99
-21.05
-22.96
-24.98
-27.39
-30.40
-34.05
-38.21
-42.45
-46.10
-48.35
-48.34
-45.50
-39.66
-31.15
-20.76
-9.50
1.55
11.51
19.76
25.96
29.99
31.92
31.96
30.46
27.88
24.75
21.56
18.74
16.62
15.37
15.05
15.57
16.76
18.35
20.07
21.69
23.05
24.02
24.45
24.18
23.04
21.01
18.23
15.04
11.87
9.04
6.69
4.69
2.82
0.85
-1.32
-3.66
-6.10
-8.56
-11.02
-13.49
-15.94
-18.29
-20.48
-22.55
-24.72
-27.34
-30.75
-35.03
-39.83
-44.31
-47.36
-47.88
-45.18
-39.21
-30.54
-20.22
-9.37
1.00
10.24
17.96
23.96
28.15
30.50
31.11
30.18
28.07
25.17
21.97
18.88
16.28
14.46
13.60
13.73
14.76
16.45
18.48
20.51
22.19
23.20
23.35
22.56
20.89
18.55
15.83
13.02
10.33
7.88
5.69
3.66
1.67
-0.45
-2.81
-5.43
-8.18
-10.83
-13.15
-14.98
-16.34
-17.45
-18.64
-20.28
-22.71
-26.08
-30.29
-34.94
-39.33
-42.58
-43.84
-42.50
-38.35
-31.64
-22.98
-13.20
-3.22
6.11
14.10
20.32
24.54
26.78
27.21
26.09
23.72
20.50
16.90
13.47
10.78
9.19
8.82
9.54
11.00
12.87
14.84
16.71
18.27
19.29
19.56
18.92
17.36
15.04
12.24
9.30
6.47
3.89
1.56
-0.61
-2.76
-5.04
-7.52
-10.23
-13.10
-15.99
-18.77
-21.33
-23.72
-26.11
-28.77
-31.97
-35.85
-40.23
-44.53
-47.87
-49.23
-47.80
-43.22
-35.74
-26.07
-15.25
-4.28
5.99
15.00
22.37
27.84
31.22
32.45
31.62
29.11
25.52
21.54
17.85
14.92
13.00
12.16
12.37
13.49
15.37
17.77
20.32
22.60
24.18
24.76
24.23
22.69
20.38
17.61
14.68
11.81
9.10
6.55
4.10
1.65
-0.89
-3.54
-6.27
-8.98
-11.61
-14.08
-16.38
-18.56
-20.73
-23.09
-25.87
-29.29
-33.41
-38.04
-42.56
-46.10
-47.60
-46.27
-41.72
-34.20
-24.48
-13.66
-2.86
7.02
15.40
22.02
26.83
29.92
31.42
31.48
30.32
28.19
25.41
22.39
19.60
17.48
16.36
16.37
17.33
18.93
20.74
22.40
23.69
24.55
24.95
24.86
24.20
22.89
20.92
18.36
15.46
12.50
9.72
7.25
5.06
2.99
0.83
-1.57
-4.22
-7.00
-9.77
-12.35
-14.63
-16.60
-18.36
-20.06
-21.92
-24.23
-27.18
-30.88
-35.18
-39.64
-43.49
-45.84
-45.80
-42.75
-36.58
-27.70
-16.97
-5.51
5.59
15.44
23.46
29.32
32.96
34.47
34.10
32.27
29.50
26.29
23.11
20.33
18.17
16.79
16.25
16.50
17.37
18.60
19.91
21.05
21.91
22.43
22.55
22.16
21.12
19.38
16.97
14.14
11.19
8.41
5.94
3.73
1.63
-0.54
-2.85
-5.26
-7.68
-9.97
-12.10
-14.08
-15.97
-17.86
-19.81
-21.88
-24.20
-26.91
-30.18
-34.06
-38.33
-42.37
-45.30
-46.12
-44.05
-38.83
-30.76
-20.67
-9.61
1.36
11.36
19.77
26.18
30.33
32.14
31.70
29.32
25.55
21.11
16.76
13.20
10.89
9.98
10.34
11.62
13.36
15.21
16.91
18.33
19.37
19.94
19.93
19.23
17.85
15.86
13.45
10.81
8.11
5.44
2.82
0.24
-2.35
-4.95
-7.54
-10.10
-12.59
-14.96
-17.17
-19.21
-21.09
-22.90
-24.81
-27.04
-29.84
-33.34
-37.46
-41.79
-45.63
-48.03
-48.08
-45.14
-39.08
-30.33
-19.76
-8.47
2.49
12.32
20.50
26.75
30.95
33.12
33.43
32.16
29.76
26.72
23.56
20.69
18.46
17.09
16.69
17.26
18.60
20.40
22.25
23.74
24.60
24.70
24.09
22.83
21.04
18.84
16.37
13.79
11.24
8.84
6.58
4.42
2.27
0.07
-2.18
-4.44
-6.68
-8.92
-11.21
-13.60
-16.09
-18.61
-20.98
-23.11
-25.00
-26.86
-29.06
-32.03
-36.05
-41.01
-46.38
-51.16
-54.22
-54.57
-51.61
-45.33
-36.25
-25.30
-13.57
-2.12
8.19
16.83
23.55
28.37
31.46
33.02
33.25
32.34
30.47
27.93
25.08
22.36
20.18
18.86
18.53
19.11
20.39
22.03
23.67
25.01
25.85
26.08
25.63
24.48
22.66
20.29
17.60
14.87
12.36
10.18
8.27
6.46
4.56
2.50
0.28
-2.00
-4.27
-6.52
-8.78
-11.10
-13.45
-15.81
-18.14
-20.46
-22.78
-25.11
-27.45
-29.86
-32.49
-35.56
-39.22
-43.37
-47.46
-50.61
-51.74
-50.00
-45.05
-37.17
-27.17
-16.10
-4.96
5.44
14.55
22.02
27.63
31.28
33.01
33.00
31.63
29.31
26.55
23.78
21.37
19.60
18.64
18.54
19.23
20.53
22.22
24.03
25.71
27.04
27.82
27.85
27.03
25.36
22.99
20.19
17.29
14.56
12.07
9.80
7.60
5.37
3.12
0.92
-1.14
-3.04
-4.89
-6.86
-9.05
-11.50
-14.09
-16.67
-19.09
-21.31
-23.39
-25.44
-27.66
-30.25
-33.39
-37.15
-41.36
-45.55
-48.93
-50.52
-49.47
-45.34
-38.22
-28.82
-18.17
-7.33
2.81
11.65
18.89
24.35
27.94
29.66
29.59
28.01
25.34
22.14
18.96
16.27
14.41
13.55
13.70
14.74
16.40
18.35
20.23
21.70
22.52
22.60
21.97
20.81
19.32
17.70
16.05
14.36
12.57
10.59
8.41
6.09
3.74
1.46
-0.68
-2.67
-4.54
-6.35
-8.21
-10.17
-12.28
-14.54
-16.88
-19.26
-21.63
-24.01
-26.47
-29.17
-32.22
-35.67
-39.41
-43.06
-46.06
-47.63
-46.99
-43.57
-37.23
-28.35
-17.77
-6.59
4.10
13.44
20.89
26.22
29.39
30.49
29.72
27.43
24.10
20.33
16.71
13.75
11.73
10.77
10.85
11.86
13.57
15.70
17.89
19.72
20.86
21.10
20.46
19.11
17.32
15.32
13.26
11.20
9.14
7.01
4.76
2.32
-0.31
-3.10
-5.94
-8.72
-11.32
-13.74
-16.06
-18.38
-20.79
-23.24
-25.61
-27.81
-29.92
-32.21
-35.02
-38.60
-42.93
-47.63
-51.99
-55.17
-56.35
-54.83
-50.26
-42.64
-32.44
-20.57
-8.19
3.49
13.53
21.41
27.04
30.59
32.41
32.81
32.02
30.30
27.92
25.26
22.72
20.67
19.39
18.96
19.33
20.33
21.72
23.27
24.76
25.96
26.69
26.80
26.25
25.06
23.34
21.24
18.90
16.41
13.84
11.23
8.60
6.01
3.46
0.99
-1.40
-3.70
-5.95
-8.22
-10.61
-13.21
-16.01
-18.89
-21.67
-24.19
-26.42
-28.56
-30.98
-34.08
-38.04
-42.70
-47.45
-51.35
-53.37
-52.62
-48.61
-41.42
-31.60
-20.11
-8.06
3.51
13.76
22.16
28.44
32.61
34.84
35.43
34.68
32.90
30.44
27.66
24.96
22.77
21.42
21.07
21.67
22.94
24.54
26.13
27.49
28.48
29.02
28.98
28.28
26.92
24.99
22.69
20.25
17.84
15.48
13.06
10.44
7.54
4.44
1.34
-1.46
-3.76
-5.53
-6.92
-8.26
-9.87
-11.97
-14.56
-17.41
-20.23
-22.82
-25.17
-27.48
-30.05
-33.16
-36.88
-41.04
-45.21
-48.73
-50.83
-50.70
-47.76
-41.76
-33.00
-22.26
-10.64
0.74
11.00
19.63
26.45
31.45
34.64
36.03
35.67
33.75
30.71
27.17
23.80
21.19
19.67
19.29
19.89
21.13
22.65
24.13
25.32
26.05
26.23
25.81
24.82
23.37
21.61
19.70
17.78
15.94
14.16
12.37
10.48
8.42
6.17
3.78
1.35
-1.02
-3.27
-5.41
-7.50
-9.66
-11.97
-14.43
-16.89
-19.21
-21.24
-23.00
-24.69
-26.69
-29.34
-32.83
-37.06
-41.52
-45.45
-47.94
-48.17
-45.57
-40.00
-31.79
-21.68
-10.68
0.14
9.90
18.01
24.16
28.28
30.43
30.72
29.38
26.75
23.38
19.88
16.85
14.75
13.79
13.93
14.93
16.52
18.34
20.10
21.57
22.55
22.94
22.71
21.92
20.67
19.11
17.33
15.37
13.25
10.97
8.56
6.09
3.67
1.37
-0.77
-2.82
-4.88
-7.04
-9.31
-11.60
-13.80
-15.78
-17.53
-19.11
-20.71
-22.55
-24.81
-27.60
-30.91
-34.59
-38.35
-41.72
-44.05
-44.61
-42.80
-38.29
-31.20
-22.09
-11.85
-1.51
8.01
16.05
22.20
26.34
28.55
29.06
28.18
26.29
23.77
20.96
18.19
15.76
13.95
12.99
13.01
13.97
15.64
17.65
19.57
21.03
21.78
21.75
20.98
19.61
17.76
15.55
13.10
10.53
7.99
5.56
3.32
1.23
-0.76
-2.78
-4.88
-7.07
-9.36
-11.67
-13.99
-16.31
-18.67
-21.08
-23.53
-26.01
-28.52
-31.16
-34.08
-37.44
-41.25
-45.30
-49.07
-51.79
-52.63
-50.88
-46.20
-38.68
-28.87
-17.64
-5.99
5.09
14.80
22.55
28.06
31.32
32.51
32.02
30.31
27.87
25.17
22.63
20.57
19.22
18.68
18.92
19.80
21.11
22.61
24.10
25.37
26.25
26.58
26.23
25.13
23.35
21.04
18.40
15.65
12.94
10.33
7.83
5.42
3.10
0.91
-1.12
-2.95
-4.64
-6.26
-8.01
-10.01
-12.37
-15.02
-17.78
-20.46
-22.90
-25.11
-27.26
-29.61
-32.43
-35.87
-39.89
-44.19
-48.19
-51.07
-51.92
-49.98
-44.90
-36.86
-26.60
-15.17
-3.66
6.99
16.16
23.47
28.75
31.99
33.29
32.92
31.31
28.96
26.36
23.90
21.81
20.22
19.23
18.86
19.16
20.10
21.55
23.28
24.99
26.39
27.25
27.42
26.88
25.63
23.78
21.44
18.80
16.10
13.56
11.30
9.27
7.33
5.25
2.95
0.48
-1.94
-4.06
-5.75
-7.11
-8.42
-10.01
-12.11
-14.69
-17.54
-20.33
-22.75
-24.70
-26.24
-27.61
-29.17
-31.30
-34.29
-38.20
-42.75
-47.25
-50.72
-52.07
-50.45
-45.49
-37.45
-27.11
-15.56
-3.91
6.85
16.00
23.11
28.00
30.71
31.55
30.94
29.39
27.37
25.24
23.24
21.55
20.30
19.62
19.60
20.24
21.40
22.85
24.30
25.51
26.32
26.68
26.59
26.07
25.11
23.68
21.76
19.41
16.80
14.15
11.69
9.53
7.68
6.01
4.38
2.66
0.83
-1.04
-2.86
-4.55
-6.14
-7.70
-9.40
-11.36
-13.64
-16.13
-18.64
-20.95
-22.89
-24.50
-26.00
-27.73
-30.10
-33.37
-37.51
-42.14
-46.58
-49.97
-51.46
-50.41
-46.50
-39.79
-30.70
-20.02
-8.72
2.16
11.71
19.34
24.80
28.22
29.84
29.95
28.78
26.55
23.54
20.22
17.12
14.75
13.42
13.22
14.03
15.64
17.77
20.14
22.44
24.34
25.51
25.75
25.04
23.51
21.46
19.19
16.95
14.88
12.98
11.19
9.39
7.48
5.43
3.28
1.15
-0.77
-2.38
-3.67
-4.79
-5.98
-7.49
-9.45
-11.83
-14.42
-17.00
-19.39
-21.53
-23.49
-25.44
-27.58
-30.13
-33.25
-36.93
-40.91
-44.54
-46.92
-47.12
-44.46
-38.84
-30.70
-20.94
-10.58
-0.55
8.42
15.83
21.36
24.83
26.29
25.95
24.22
21.62
18.64
15.75
13.33
11.67
10.94
11.14
12.17
13.75
15.58
17.37
18.91
20.02
20.61
20.65
20.14
19.13
17.73
16.08
14.29
12.39
10.41
8.31
6.12
3.91
1.79
-0.18
-1.96
-3.63
-5.37
-7.34
-9.69
-12.45
-15.57
-18.87
-22.15
-25.19
-27.89
-30.28
-32.60
-35.20
-38.46
-42.52
-47.09
-51.47
-54.62
-55.50
-53.33
-47.85
-39.43
-28.88
-17.29
-5.70
5.00
14.17
21.43
26.62
29.71
30.87
30.41
28.77
26.41
23.81
21.36
19.34
17.97
17.36
17.58
18.54
20.07
21.93
23.81
25.40
26.45
26.78
26.32
25.09
23.18
20.78
18.10
15.38
12.77
10.36
8.14
6.05
4.01
1.92
-0.22
-2.44
-4.73
-7.10
-9.52
-11.94
-14.32
-16.58
-18.73
-20.82
-23.00
-25.45
-28.39
-31.92
-36.00
-40.33
-44.38
-47.35
-48.39
-46.78
-42.12
-34.56
-24.74
-13.67
-2.47
7.88
16.74
23.76
28.86
32.07
33.51
33.33
31.79
29.31
26.34
23.42
20.98
19.32
18.55
18.63
19.42
20.70
22.21
23.71
24.96
25.74
25.93
25.46
24.35
22.72
20.68
18.37
15.90
13.38
10.92
8.60
6.51
4.64
2.90
1.12
-0.88
-3.19
-5.76
-8.43
-11.00
-13.30
-15.30
-17.09
-18.89
-20.92
-23.44
-26.61
-30.49
-34.91
-39.37
-43.14
-45.25
-44.85
-41.38
-34.85
-25.85
-15.39
-4.63
5.36
13.84
20.44
25.13
28.02
29.28
29.10
27.71
25.37
22.50
19.63
17.27
15.83
15.48
16.10
17.46
19.25
21.22
23.20
24.97
26.28
26.82
26.38
24.92
22.59
19.69
16.52
13.35
10.30
7.46
4.85
2.49
0.37
-1.59
-3.54
-5.57
-7.79
-10.18
-12.65
-15.07
-17.34
-19.41
-21.39
-23.44
-25.85
-28.84
-32.56
-36.87
-41.34
-45.24
-47.65
-47.67
-44.66
-38.50
-29.61
-18.93
-7.62
3.21
12.70
20.37
26.05
29.80
31.77
32.16
31.23
29.35
26.90
24.31
21.89
19.89
18.46
17.70
17.63
18.18
19.20
20.44
21.63
22.51
22.91
22.79
22.16
21.07
19.59
17.76
15.59
13.10
10.34
7.40
4.48
1.79
-0.48
-2.30
-3.77
-5.10
-6.56
-8.32
-10.47
-12.92
-15.50
-17.98
-20.18
-22.03
-23.63
-25.29
-27.39
-30.24
-33.85
-37.85
-41.52
-43.99
-44.45
-42.35
-37.53
-30.25
-21.08
-10.84
-0.47
9.12
17.21
23.33
27.34
29.37
29.74
28.83
27.04
24.75
22.30
20.05
18.25
17.09
16.64
16.85
17.57
18.65
19.88
21.11
22.17
22.89
23.09
22.67
21.61
20.02
18.07
15.96
13.79
11.55
9.19
6.67
4.03
1.44
-0.94
-2.98
-4.68
-6.18
-7.65
-9.28
-11.18
-13.37
-15.77
-18.23
-20.55
-22.57
-24.26
-25.77
-27.43
-29.62
-32.64
-36.46
-40.67
-44.57
-47.24
-47.83
-45.75
-40.81
-33.27
-23.79
-13.36
-3.04
6.23
13.77
19.31
22.89
24.76
25.23
24.58
23.03
20.82
18.31
15.91
14.07
13.12
13.13
13.98
15.36
16.96
18.56
20.02
21.22
22.02
22.25
21.76
20.51
18.67
16.50
14.28
12.18
10.19
8.20
6.05
3.71
1.28
-1.07
-3.13
-4.81
-6.18
-7.43
-8.83
-10.57
-12.70
-15.10
-17.57
-19.86
-21.86
-23.63
-25.39
-27.48
-30.18
-33.64
-37.75
-42.09
-45.95
-48.46
-48.81
-46.39
-41.04
-33.10
-23.36
-12.84
-2.60
6.49
13.89
19.33
22.82
24.54
24.74
23.73
21.87
19.54
17.14
15.00
13.40
12.45
12.20
12.57
13.49
14.86
16.54
18.33
19.96
21.14
21.63
21.33
20.32
18.78
16.91
14.84
12.59
10.14
7.52
4.82
2.20
-0.19
-2.27
-4.06
-5.69
-7.32
-9.13
-11.26
-13.76
-16.57
-19.48
-22.24
-24.62
-26.62
-28.41
-30.37
-32.87
-36.19
-40.28
-44.75
-48.88
-51.72
-52.35
-50.09
-44.71
-36.55
-26.38
-15.27
-4.26
5.80
14.32
21.01
25.74
28.56
29.63
29.22
27.73
25.61
23.31
21.22
19.66
18.82
18.75
19.37
20.52
21.99
23.54
24.97
26.08
26.72
26.82
26.35
25.41
24.10
22.47
20.51
18.18
15.44
12.39
9.26
6.35
3.83
1.74
-0.09
-1.90
-3.89
-6.16
-8.64
-11.25
-13.83
-16.31
-18.67
-20.90
-23.06
-25.21
-27.47
-29.99
-32.94
-36.45
-40.44
-44.54
-48.02
-49.97
-49.45
-45.89
-39.20
-29.87
-18.82
-7.16
4.10
14.11
22.30
28.40
32.33
34.24
34.42
33.26
31.20
28.64
25.98
23.53
21.54
20.15
19.36
19.15
19.48
20.34
21.75
23.59
25.58
27.32
28.35
28.36
27.34
25.46
23.05
20.40
17.68
14.95
12.24
9.58
7.03
4.62
2.34
0.11
-2.13
-4.47
-6.90
-9.38
-11.84
-14.17
-16.28
-18.12
-19.72
-21.17
-22.73
-24.68
-27.34
-30.88
-35.29
-40.20
-44.95
-48.61
-50.18
-48.84
-44.21
-36.46
-26.32
-14.90
-3.38
7.17
16.01
22.76
27.33
29.84
30.53
29.67
27.63
24.77
21.54
18.35
15.59
13.57
12.47
12.37
13.21
14.82
16.91
19.18
21.30
22.99
24.01
24.19
23.40
21.63
18.98
15.71
12.21
8.89
6.05
3.79
1.97
0.27
-1.70
-4.20
-7.25
-10.67
-14.09
-17.18
-19.74
-21.78
-23.49
-25.17
-27.17
-29.74
-33.03
-36.94
-41.07
-44.74
-47.04
-47.10
-44.31
-38.49
-30.01
-19.63
-8.38
2.69
12.69
21.01
27.33
31.58
33.87
34.38
33.36
31.09
27.90
24.27
20.71
17.77
15.87
15.18
15.60
16.82
18.44
20.10
21.56
22.66
23.28
23.32
22.67
21.27
19.17
16.53
13.59
10.60
7.72
5.02
2.51
0.11
-2.26
-4.72
-7.34
-10.18
-13.19
-16.21
-19.07
-21.61
-23.82
-25.91
-28.22
-31.11
-34.82
-39.24
-43.88
-47.90
-50.33
-50.29
-47.26
-41.21
-32.59
-22.20
-11.00
0.06
10.17
18.73
25.34
29.80
32.11
32.44
31.10
28.56
25.37
22.03
19.01
16.62
15.03
14.29
14.37
15.18
16.54
18.18
19.75
20.89
21.30
20.90
19.77
18.13
16.21
14.11
11.79
9.15
6.09
2.68
-0.91
-4.40
-7.57
-10.34
-12.79
-15.08
-17.46
-20.05
-22.98
-26.29
-29.92
-33.68
-37.17
-39.70
-40.48
-38.80
-34.31
-27.15
-17.98
-7.78
2.37
11.62
19.40
25.45
29.72
32.23
33.04
32.25
30.06
26.82
22.99
19.14
15.81
13.38
12.04
11.72
12.21
13.13
14.13
14.92
15.32
15.28
14.85
14.12
13.12
11.78
10.00
7.65
4.77
1.47
-1.98
-5.34
-8.41
-11.18
-13.74
-16.30
-19.09
-22.26
-25.82
-29.62
-33.24
-36.10
-37.51
-36.86
-33.76
-28.18
-20.50
-11.39
-1.71
7.63
15.88
22.52
27.26
30.03
30.92
30.13
27.94
24.76
21.06
17.37
14.17
11.78
10.32
9.75
9.88
10.50
11.39
12.32
13.09
13.49
13.39
12.74
11.56
9.94
7.96
5.66
3.10
0.34
-2.54
-5.42
-8.20
-10.77
-13.10
-15.22
-17.21
-19.26
-21.61
-24.46
-27.90
-31.72
-35.40
-38.13
-39.04
-37.44
-33.08
-26.24
-17.63
-8.16
1.26
9.90
17.20
22.78
26.39
27.93
27.50
25.38
22.03
17.97
13.76
9.91
6.83
4.88
4.26
4.95
6.72
9.13
11.61
13.68
14.99
15.39
14.92
13.74
12.03
9.97
7.70
5.32
2.92
0.53
-1.82
-4.14
-6.45
-8.76
-11.03
-13.26
-15.48
-17.78
-20.35
-23.40
-26.98
-30.92
-34.74
-37.74
-39.11
-38.22
-34.69
-28.59
-20.37
-10.80
-0.85
8.52
16.55
22.71
26.80
28.84
29.03
27.62
24.96
21.46
17.64
14.08
11.27
9.55
8.96
9.33
10.36
11.71
13.13
14.42
15.45
16.09
16.30
16.04
15.32
14.15
12.53
10.48
8.06
5.43
2.78
0.31
-1.91
-3.90
-5.84
-7.93
-10.32
-13.03
-15.92
-18.74
-21.26
-23.39
-25.24
-27.10
-29.41
-32.48
-36.37
-40.70
-44.68
-47.28
-47.51
-44.71
-38.77
-30.14
-19.73
-8.62
2.14
11.75
19.67
25.65
29.61
31.59
31.75
30.40
27.99
25.05
22.14
19.72
18.06
17.18
16.98
17.24
17.80
18.53
19.36
20.21
20.96
21.44
21.49
21.01
19.95
18.38
16.38
14.04
11.44
8.73
6.03
3.49
1.19
-0.89
-2.87
-4.95
-7.27
-9.87
-12.65
-15.42
-17.99
-20.21
-22.10
-23.76
-25.43
-27.39
-29.91
-33.18
-37.13
-41.43
-45.42
-48.25
-49.04
-47.16
-42.37
-34.91
-25.43
-14.86
-4.15
5.79
14.31
21.03
25.80
28.68
29.86
29.63
28.28
26.15
23.61
21.02
18.75
17.08
16.17
16.08
16.77
18.05
19.73
21.48
22.99
23.93
24.08
23.41
22.09
20.44
18.74
17.16
15.66
14.07
12.19
9.90
7.28
4.54
1.90
-0.49
-2.62
-4.58
-6.53
-8.59
-10.88
-13.42
-16.20
-19.10
-21.94
-24.52
-26.71
-28.55
-30.32
-32.41
-35.20
-38.77
-42.76
-46.37
-48.56
-48.34
-45.11
-38.81
-29.99
-19.55
-8.58
1.96
11.28
18.85
24.41
27.88
29.41
29.28
27.88
25.65
22.99
20.26
17.72
15.67
14.33
13.89
14.38
15.68
17.52
19.56
21.42
22.82
23.57
23.61
22.99
21.86
20.41
18.81
17.20
15.58
13.87
11.95
9.73
7.18
4.35
1.40
-1.46
-4.05
-6.26
-8.13
-9.84
-11.65
-13.73
-16.11
-18.63
-21.04
-23.16
-24.99
-26.73
-28.72
-31.28
-34.57
-38.43
-42.40
-45.70
-47.38
-46.53
-42.56
-35.41
-25.69
-14.47
-3.06
7.36
15.99
22.48
26.83
29.23
29.93
29.17
27.22
24.42
21.19
17.99
15.25
13.30
12.31
12.28
13.11
14.60
16.52
18.60
20.57
22.13
23.03
23.07
22.22
20.60
18.43
16.00
13.51
11.10
8.81
6.62
4.50
2.42
0.36
-1.77
-4.08
-6.65
-9.52
-12.61
-15.76
-18.79
-21.52
-23.90
-25.93
-27.81
-29.76
-32.12
-35.16
-39.01
-43.50
-48.11
-52.01
-54.21
-53.85
-50.42
-43.92
-34.82
-23.99
-12.42
-1.07
9.25
17.99
24.84
29.73
32.72
33.97
33.66
32.00
29.31
26.03
22.68
19.84
17.93
17.16
17.48
18.62
20.27
22.13
23.93
25.49
26.60
27.09
26.87
25.94
24.45
22.57
20.44
18.12
15.58
12.76
9.68
6.45
3.27
0.35
-2.20
-4.43
-6.54
-8.83
-11.53
-14.72
-18.24
-21.78
-24.98
-27.58
-29.62
-31.38
-33.35
-36.03
-39.70
-44.24
-49.13
-53.48
-56.22
-56.41
-53.38
-47.02
-37.75
-26.42
-14.18
-2.14
8.74
17.83
24.86
29.77
32.70
33.81
33.34
31.57
28.84
25.59
22.29
19.39
17.32
16.35
16.58
17.94
20.12
22.69
25.15
27.11
28.31
28.70
28.36
27.41
25.92
23.92
21.44
18.59
15.58
12.63
9.93
7.52
5.35
3.23
1.00
-1.45
-4.15
-7.04
-10.03
-13.01
-15.92
-18.69
-21.30
-23.73
-26.05
-28.38
-30.97
-34.10
-37.98
-42.52
-47.24
-51.23
-53.37
-52.64
-48.46
-40.89
-30.59
-18.66
-6.30
5.45
15.81
24.31
30.68
34.84
36.79
36.69
34.86
31.78
28.08
24.37
21.19
18.83
17.37
16.78
17.01
17.99
19.66
21.87
24.31
26.52
28.06
28.60
28.03
26.43
24.04
21.13
17.96
14.78
11.81
9.24
7.12
5.36
3.73
1.92
-0.30
-3.02
-6.14
-9.41
-12.55
-15.33
-17.65
-19.58
-21.32
-23.15
-25.40
-28.34
-32.08
-36.53
-41.27
-45.60
-48.59
-49.30
-47.03
-41.55
-33.18
-22.73
-11.27
0.09
10.45
19.20
25.94
30.49
32.79
32.92
31.12
27.86
23.79
19.59
15.88
13.07
11.38
10.85
11.40
12.85
14.96
17.41
19.86
21.96
23.46
24.19
24.03
22.96
21.00
18.32
15.17
11.84
8.59
5.53
2.62
-0.28
-3.25
-6.28
-9.28
-12.10
-14.70
-17.09
-19.39
-21.72
-24.24
-27.12
-30.54
-34.60
-39.13
-43.61
-47.19
-48.87
-47.80
-43.54
-36.22
-26.45
-15.16
-3.39
7.91
17.96
26.16
32.13
35.70
36.96
36.22
33.97
30.79
27.24
23.84
20.97
18.92
17.82
17.64
18.20
19.23
20.45
21.66
22.74
23.62
24.19
24.30
23.72
22.28
19.96
16.94
13.53
10.10
6.91
4.11
1.62
-0.72
-3.17
-5.92
-9.06
-12.46
-15.89
-19.06
-21.81
-24.12
-26.19
-28.30
-30.77
-33.90
-37.77
-42.25
-46.89
-50.87
-53.17
-52.85
-49.27
-42.40
-32.79
-21.42
-9.42
2.20
12.66
21.40
28.07
32.51
34.74
34.94
33.52
30.95
27.80
24.59
21.77
19.64
18.33
17.88
18.18
19.10
20.43
21.95
23.43
24.62
25.33
25.42
24.80
23.45
21.36
18.61
15.36
11.91
8.56
5.58
3.07
0.88
-1.29
-3.73
-6.57
-9.70
-12.85
-15.73
-18.18
-20.22
-22.05
-23.99
-26.36
-29.45
-33.36
-37.97
-42.80
-46.96
-49.37
-49.02
-45.32
-38.29
-28.60
-17.33
-5.67
5.28
14.76
22.30
27.76
31.26
33.02
33.36
32.52
30.72
28.16
25.14
22.06
19.36
17.47
16.58
16.69
17.55
18.80
20.08
21.15
21.85
22.12
21.92
21.23
19.99
18.15
15.73
12.86
9.79
6.81
4.17
1.94
-0.00
-1.90
-4.02
-6.47
-9.20
-12.03
-14.70
-17.07
-19.08
-20.83
-22.49
-24.28
-26.42
-29.09
-32.41
-36.30
-40.47
-44.31
-47.00
-47.60
-45.39
-40.05
-31.86
-21.64
-10.53
0.26
9.77
17.37
22.80
26.04
27.24
26.62
24.54
21.44
17.89
14.49
11.77
10.04
9.43
9.83
11.01
12.77
14.92
17.31
19.75
21.95
23.49
23.99
23.23
21.27
18.41
15.11
11.77
8.63
5.75
3.12
0.67
-1.65
-3.90
-6.15
-8.47
-10.89
-13.35
-15.73
-17.93
-19.98
-22.07
-24.46
-27.36
-30.72
-34.19
-37.13
-38.73
-38.26
-35.26
-29.67
-21.85
-12.53
-2.60
7.05
15.67
22.74
27.94
31.17
32.48
32.04
30.13
27.14
23.54
19.91
16.77
14.56
13.48
13.51
14.39
15.73
17.15
18.39
19.34
19.96
20.24
20.14
19.53
18.30
16.36
13.77
10.73
7.51
4.41
1.63
-0.73
-2.76
-4.61
-6.49
-8.60
-10.99
-13.67
-16.50
-19.35
-22.03
-24.46
-26.63
-28.69
-30.92
-33.65
-37.14
-41.38
-45.97
-50.08
-52.63
-52.53
-49.11
-42.30
-32.75
-21.54
-9.95
0.98
10.56
18.47
24.60
28.94
31.51
32.38
31.77
30.09
27.83
25.49
23.47
22.01
21.20
21.02
21.40
22.25
23.39
24.60
25.59
26.06
25.83
24.85
23.22
21.17
18.94
16.69
14.48
12.25
9.92
7.45
4.87
2.30
-0.18
-2.51
-4.72
-6.89
-9.14
-11.50
-13.96
-16.42
-18.75
-20.81
-22.59
-24.21
-25.93
-28.07
-30.89
-34.46
-38.54
-42.58
-45.80
-47.34
-46.51
-42.94
-36.65
-28.11
-18.04
-7.34
3.09
12.49
20.29
26.26
30.35
32.71
33.52
33.01
31.44
29.13
26.54
24.12
22.28
21.24
21.01
21.40
22.17
23.11
24.05
24.93
25.66
26.14
26.21
25.74
24.62
22.86
20.57
17.94
15.23
12.64
10.27
8.16
6.22
4.33
2.37
0.28
-1.91
-4.12
-6.22
-8.16
-9.92
-11.61
-13.34
-15.20
-17.20
-19.26
-21.30
-23.24
-25.11
-27.03
-29.21
-31.88
-35.17
-39.04
-43.10
-46.65
-48.78
-48.55
-45.38
-39.15
-30.36
-19.91
-8.87
1.73
11.10
18.70
24.24
27.64
28.99
28.59
26.85
24.28
21.37
18.54
16.11
14.28
13.15
12.74
13.02
13.90
15.23
16.85
18.56
20.10
21.20
21.61
21.20
19.99
18.14
15.91
13.49
11.06
8.66
6.34
4.12
2.05
0.16
-1.56
-3.18
-4.75
-6.32
-7.88
-9.44
-11.08
-12.97
-15.29
-18.06
-21.11
-24.12
-26.74
-28.82
-30.55
-32.43
-35.03
-38.68
-43.18
-47.83
-51.54
-53.21
-52.04
-47.77
-40.71
-31.60
-21.36
-10.90
-1.01
7.71
14.83
20.05
23.25
24.49
24.08
22.48
20.25
17.96
16.05
14.87
14.53
15.06
16.36
18.31
20.74
23.47
26.25
28.81
30.84
32.12
32.53
32.11
30.99
29.38
27.40
25.11
22.49
19.48
16.11
12.50
8.87
5.47
2.51
0.06
-1.93
-3.59
-5.15
-6.77
-8.62
-10.73
-13.09
-15.62
-18.19
-20.68
-22.99
-25.13
-27.22
-29.52
-32.32
-35.72
-39.52
-43.14
-45.71
-46.32
-44.31
-39.45
-32.03
-22.77
-12.64
-2.63
6.45
14.03
19.90
24.05
26.68
27.97
28.13
27.29
25.60
23.33
20.83
18.56
16.85
15.89
15.62
15.85
16.37
17.02
17.73
18.45
19.06
19.39
19.26
18.52
17.17
15.34
13.21
10.97
8.72
6.50
4.28
2.08
-0.07
-2.12
-4.06
-5.92
-7.80
-9.83
-12.09
-14.57
-17.20
-19.79
-22.13
-24.09
-25.71
-27.21
-28.94
-31.27
-34.38
-38.16
-42.19
-45.77
-48.08
-48.39
-46.22
-41.42
-34.23
-25.19
-15.12
-4.90
4.67
12.95
19.54
24.31
27.26
28.55
28.38
27.01
24.76
22.00
19.16
16.67
14.86
13.96
13.98
14.77
16.07
17.60
19.09
20.39
21.36
21.91
21.96
21.40
20.16
18.21
15.67
12.74
9.68
6.78
4.23
2.07
0.15
-1.74
-3.86
-6.32
-9.09
-11.99
-14.80
-17.34
-19.59
-21.63
-23.62
-25.71
-28.03
-30.67
-33.73
-37.24
-41.12
-44.97
-48.12
-49.68
-48.84
-45.09
-38.47
-29.56
-19.26
-8.59
1.57
10.61
18.14
23.94
27.92
30.11
30.64
29.81
28.01
25.67
23.17
20.84
18.92
17.55
16.83
16.77
17.32
18.38
19.78
21.33
22.79
23.94
24.58
24.59
23.91
22.56
20.59
18.11
15.27
12.22
9.17
6.34
3.90
1.93
0.36
-1.02
-2.51
-4.36
-6.71
-9.49
-12.50
-15.51
-18.28
-20.70
-22.79
-24.68
-26.59
-28.84
-31.69
-35.29
-39.48
-43.74
-47.20
-48.84
-47.81
-43.65
-36.52
-27.09
-16.42
-5.58
4.53
13.33
20.53
26.07
29.95
32.23
33.02
32.50
31.00
28.92
26.67
24.57
22.83
21.56
20.78
20.55
20.89
21.77
23.04
24.44
25.63
26.31
26.28
25.49
24.02
22.01
19.63
17.08
14.50
12.01
9.67
7.43
5.23
3.00
0.69
-1.65
-3.94
-6.09
-8.04
-9.86
-11.67
-13.61
-15.76
-18.11
-20.53
-22.86
-25.05
-27.20
-29.57
-32.45
-36.03
-40.18
-44.37
-47.79
-49.47
-48.61
-44.77
-38.01
-28.93
-18.44
-7.62
2.56
11.33
18.29
23.33
26.58
28.27
28.68
28.04
26.55
24.38
21.75
18.96
16.38
14.40
13.30
13.19
14.01
15.49
17.33
19.19
20.84
22.09
22.80
22.83
22.08
20.53
18.25
15.53
12.73
10.22
8.21
6.62
5.18
3.52
1.42
-1.12
-3.84
-6.43
-8.64
-10.48
-12.14
-13.90
-15.91
-18.16
-20.50
-22.78
-24.99
-27.30
-29.96
-33.16
-36.84
-40.62
-43.83
-45.68
-45.43
-42.64
-37.22
-29.51
-20.14
-9.95
0.18
9.44
17.16
22.91
26.51
28.04
27.82
26.27
23.87
21.04
18.11
15.37
13.03
11.27
10.24
9.98
10.43
11.47
12.93
14.61
16.26
17.58
18.30
18.23
17.34
15.82
13.90
11.80
9.60
7.28
4.81
2.23
-0.29
-2.64
-4.80
-6.94
-9.28
-11.97
-14.97
-18.07
-21.01
-23.61
-25.91
-28.08
-30.38
-33.07
-36.30
-40.12
-44.41
-48.80
-52.68
-55.28
-55.78
-53.61
-48.52
-40.70
-30.70
-19.37
-7.70
3.35
12.96
20.64
26.20
29.74
31.53
31.88
31.06
29.34
26.98
24.33
21.79
19.72
18.34
17.71
17.74
18.30
19.30
20.63
22.17
23.72
24.96
25.58
25.33
24.14
22.13
19.57
16.75
13.92
11.21
8.65
6.20
3.81
1.46
-0.87
-3.19
