1603109180.00
64.000000
-0.00
-0.00
-0.00
-0.00
-0.00
-0.00
-0.00
-0.00
-0.00
-0.00
0.00
0.01
0.01
-0.00
-0.03
-0.05
-0.05
0.00
0.13
0.36
0.66
1.01
1.37
1.72
2.06
2.40
2.79
3.24
3.80
4.42
5.06
5.66
6.20
6.68
7.15
7.68
8.31
9.14
10.09
11.04
11.88
12.56
13.14
13.76
14.65
15.96
17.91
20.32
22.90
25.38
27.58
29.57
31.68
34.32
37.81
42.54
48.15
54.10
59.83
64.97
69.58
74.14
79.34
85.71
93.76
103.00
112.62
121.73
129.77
136.75
143.30
150.75
157.77
166.64
177.95
191.79
206.97
220.57
228.25
225.36
208.53
176.87
132.76
80.05
23.07
-34.94
-92.44
-149.16
-205.23
-260.37
-313.74
-363.86
-409.81
-450.88
-486.46
-515.67
-537.12
-549.06
-549.74
-538.08
-513.87
-478.33
-433.58
-382.22
-326.87
-269.74
-212.53
-156.50
-102.70
-52.03
-5.52
35.95
71.74
101.60
125.73
144.67
159.14
169.79
177.19
181.67
183.47
182.85
180.18
175.92
170.56
164.50
157.99
151.10
143.78
136.04
127.98
119.89
112.12
104.92
98.40
92.35
86.41
80.22
73.60
66.71
60.03
54.11
49.37
45.86
43.17
40.63
37.54
33.59
28.96
24.29
20.34
17.59
16.06
15.16
13.96
11.52
7.01
-0.15
-10.08
-22.14
-34.60
-44.74
-49.57
-47.05
-37.19
-22.41
-6.70
5.90
12.92
14.29
11.93
8.49
6.06
5.37
6.04
7.22
8.27
9.10
9.79
10.36
10.55
9.98
8.44
6.05
3.44
1.27
-0.04
-0.45
-0.30
-0.02
0.10
-0.02
-0.31
-0.75
-1.28
-1.81
-2.08
-1.81
-0.90
0.37
1.40
1.58
0.72
-0.78
-2.06
-2.42
-1.68
-0.30
0.90
1.36
1.05
0.44
0.11
0.27
0.67
0.77
0.17
-1.14
-2.73
-4.09
-4.86
-5.05
-4.91
-4.81
-4.90
-5.15
-5.41
-5.51
-5.38
-5.05
-4.62
-4.16
-3.63
-3.06
-2.47
-2.00
-1.73
-1.64
-1.57
-1.27
-0.62
0.26
1.05
1.39
1.10
0.30
-0.62
-1.21
-1.12
-0.31
1.01
2.47
3.60
3.99
3.42
1.95
-0.01
-1.78
-2.63
-2.16
-0.49
1.70
3.49
4.24
3.87
2.94
2.32
2.70
4.15
6.08
7.54
7.68
6.31
3.96
1.73
0.69
1.35
3.33
5.54
6.68
5.88
3.21
-0.39
-3.50
-4.95
-4.39
-2.43
-0.32
0.67
-0.18
-2.82
-6.63
-10.65
-13.89
-15.40
-14.22
-9.72
-2.00
7.81
17.57
24.86
27.94
26.49
21.61
15.27
9.27
4.72
1.88
0.52
0.32
1.08
2.54
4.30
5.87
6.80
6.92
6.31
5.22
3.92
2.74
2.08
2.34
3.68
5.72
7.53
8.03
6.47
3.07
-1.18
-4.92
-7.12
-7.43
-6.20
-4.03
-1.38
1.48
4.42
7.11
9.04
9.64
8.57
5.90
2.18
-1.87
-5.66
-8.88
-11.44
-13.31
-14.38
-14.45
-13.40
-11.28
-8.49
-5.60
-3.15
-1.47
-0.58
-0.33
-0.53
-1.09
-2.01
-3.24
-4.65
-5.94
-6.83
-7.24
-7.30
-7.34
-7.73
-8.78
-10.56
-12.86
-15.07
-16.12
-14.70
-9.77
-1.19
9.83
20.87
29.15
32.57
30.71
24.86
17.34
10.44
5.44
2.31
0.23
-1.79
-4.27
-7.11
-9.87
-12.12
-13.64
-14.48
-14.83
-14.95
-15.15
-15.65
-16.55
-17.72
-18.69
-18.72
-16.93
-12.55
-5.32
4.27
14.90
24.68
31.77
34.95
34.08
30.03
24.33
18.45
13.33
9.20
5.76
2.67
-0.08
-2.15
-3.11
-2.85
-1.80
-0.85
-0.87
-2.29
-4.78
-7.38
-9.10
-9.39
-8.53
-7.42
-6.95
-7.54
-8.88
-10.25
-10.96
-10.77
-9.96
-9.04
-8.37
-7.96
-7.50
-6.66
-5.25
-3.36
-1.31
0.56
1.96
2.72
2.83
2.39
1.61
0.77
0.14
-0.10
0.13
0.77
1.74
2.92
4.24
5.59
6.82
7.78
8.28
8.23
7.63
6.58
5.25
3.93
2.93
2.51
2.74
3.35
3.85
3.72
2.71
1.09
-0.45
-1.14
-0.63
0.78
2.24
2.90
2.37
0.95
-0.60
-1.58
-1.78
-1.55
-1.49
-2.04
-3.25
-4.86
-6.54
-8.02
-9.16
-9.74
-9.48
-8.10
-5.58
-2.29
1.03
3.65
5.10
5.40
4.86
3.97
3.09
2.40
1.96
1.67
1.43
1.17
0.93
0.83
1.13
2.05
3.62
5.57
7.43
8.70
9.08
8.61
7.65
6.72
6.24
6.39
7.02
7.75
8.17
8.02
7.30
6.31
5.36
4.65
4.14
3.69
3.15
2.61
2.24
2.20
2.46
2.71
2.57
1.74
0.21
-1.75
-3.76
-5.52
-6.93
-8.01
-8.91
-9.76
-10.64
-11.55
-12.47
-13.32
-14.10
-14.80
-15.50
-16.23
-16.84
-16.94
-16.03
-13.67
-9.77
-4.72
0.63
5.30
8.54
10.09
10.15
9.29
8.08
6.89
5.81
4.74
3.60
2.52
1.77
1.66
2.31
3.53
4.93
6.06
6.63
6.69
6.45
6.16
5.88
5.53
4.89
3.83
2.39
0.80
-0.62
-1.53
-1.68
-0.90
0.86
3.45
6.45
9.22
10.97
11.04
9.26
6.04
2.28
-0.99
-3.12
-4.09
-4.43
-4.89
-5.97
-7.72
-9.76
-11.65
-13.08
-13.97
-14.34
-14.07
-12.94
-10.75
-7.58
-3.91
-0.49
1.94
3.02
2.90
2.10
1.29
0.94
1.13
1.62
2.01
1.99
1.43
0.49
-0.52
-1.27
-1.58
-1.43
-0.97
-0.36
0.24
0.74
1.08
1.20
1.01
0.51
-0.20
-0.92
-1.40
-1.51
-1.30
-1.03
-1.13
-1.91
-3.47
-5.56
-7.58
-8.80
-8.59
-6.59
-2.97
1.60
6.12
9.57
11.23
11.01
9.30
6.79
4.03
1.30
-1.42
-4.14
-6.69
-8.64
-9.50
-8.93
-7.10
-4.57
-2.13
-0.43
0.25
0.03
-0.70
-1.51
-2.08
-2.26
-2.04
-1.47
-0.54
0.81
2.67
5.00
7.57
9.89
11.44
11.86
11.10
9.50
7.61
6.02
5.14
5.06
5.62
6.57
7.65
8.69
9.50
9.93
9.85
9.22
8.15
7.03
6.31
6.39
7.40
8.98
10.45
10.99
10.09
7.85
5.03
2.71
1.87
2.87
5.34
8.30
10.52
10.96
8.99
4.54
-1.96
-9.62
-17.21
-23.41
-27.16
-28.01
-26.25
-22.79
-18.68
-14.81
-11.64
-9.22
-7.42
-6.01
-4.70
-3.18
-1.16
1.45
4.40
7.14
9.00
9.57
8.97
7.82
6.94
6.92
7.81
9.13
10.12
10.18
9.15
7.35
5.43
4.04
3.51
3.72
4.22
4.51
4.32
3.74
3.10
2.69
2.54
2.36
1.77
0.57
-1.07
-2.65
-3.70
-3.98
-3.73
-3.39
-3.42
-4.01
-4.99
-6.06
-7.03
-7.92
-8.94
-10.24
-11.77
-13.24
-14.26
-14.49
-13.86
-12.47
-10.58
-8.40
-6.09
-3.82
-1.72
0.05
1.42
2.43
3.21
3.95
4.71
5.44
5.98
6.14
5.87
5.27
4.57
4.02
3.80
3.92
4.32
4.92
5.65
6.36
6.86
6.92
6.35
5.13
3.36
1.26
-0.94
-3.03
-4.79
-6.02
-6.54
-6.31
-5.57
-4.80
-4.52
-5.00
-6.13
-7.50
-8.72
-9.73
-10.77
-12.21
-14.16
-16.24
-17.73
-17.97
-16.69
-14.20
-11.20
-8.40
-6.26
-4.83
-3.88
-3.01
-1.94
-0.54
1.04
2.52
3.61
4.18
4.38
4.61
5.24
6.46
8.04
9.52
10.37
10.28
9.27
7.63
5.75
3.99
2.60
1.73
1.46
1.73
2.33
2.85
2.86
2.02
0.23
-2.26
-5.01
-7.54
-9.43
-10.48
-10.69
-10.20
-9.29
-8.30
-7.55
-7.28
-7.51
-8.12
-8.77
-9.07
-8.69
-7.45
-5.40
-2.87
-0.30
1.85
3.29
3.99
4.13
4.00
3.80
3.66
3.60
3.63
3.88
4.48
5.53
6.91
8.27
9.18
9.35
8.80
7.82
6.77
5.83
5.02
4.20
3.37
2.71
2.48
2.80
3.45
4.01
3.95
3.06
1.39
-0.68
-2.78
-4.73
-6.53
-8.24
-9.78
-10.86
-11.18
-10.58
-9.24
-7.63
-6.28
-5.51
-5.27
-5.16
-4.73
-3.71
-2.21
-0.65
0.51
1.05
1.13
1.16
1.53
2.34
3.39
4.35
4.96
5.26
5.54
6.21
7.48
9.28
11.20
12.71
13.33
12.89
11.58
9.95
8.60
8.00
8.31
9.22
10.22
10.74
10.48
9.47
8.04
6.57
5.36
4.47
3.80
3.18
2.51
1.79
1.07
0.37
-0.38
-1.28
-2.42
-3.83
-5.42
-7.00
-8.38
-9.42
-10.07
-10.37
-10.44
-10.35
-10.19
-9.90
-9.32
-8.24
-6.47
-4.02
-1.07
1.98
4.65
6.59
7.61
7.75
7.17
6.07
4.71
3.30
2.14
1.49
1.55
2.38
3.76
5.33
6.58
7.10
6.74
5.66
4.29
3.16
2.64
2.83
3.42
3.85
3.61
2.50
0.85
-0.74
-1.66
-1.71
-1.18
-0.80
-1.30
-3.02
-5.77
-8.94
-11.82
-13.84
-14.82
-14.89
-14.32
-13.48
-12.77
-12.63
-13.42
-15.26
-17.75
-19.90
-20.29
-17.54
-11.03
-1.37
9.60
19.46
26.18
28.95
28.39
26.01
23.40
21.37
19.79
17.91
15.06
11.12
6.59
2.30
-1.05
-3.23
-4.46
-5.17
-5.79
-6.53
-7.34
-7.99
-8.13
-7.59
-6.39
-4.83
-3.38
-2.47
-2.30
-2.72
-3.39
-3.92
-4.13
-4.05
-3.89
-3.88
-4.15
-4.73
-5.52
-6.41
-7.29
-8.08
-8.68
-9.05
-9.17
-9.10
-8.88
-8.52
-7.93
-7.01
-5.75
-4.34
-3.12
-2.41
-2.37
-2.87
-3.58
-4.13
-4.27
-3.92
-3.14
-1.99
-0.51
1.23
3.03
4.62
5.70
6.15
6.07
5.72
5.41
5.32
5.41
5.58
5.68
5.68
5.63
5.63
5.79
6.13
6.63
7.16
7.56
7.67
7.42
6.86
6.19
5.64
5.38
5.44
5.63
5.64
5.18
4.16
2.72
1.17
-0.11
-0.96
-1.40
-1.68
-2.05
-2.60
-3.23
-3.74
-3.99
-4.03
-4.07
-4.26
-4.61
-4.88
-4.77
-4.16
-3.28
-2.63
-2.70
-3.71
-5.34
-6.85
-7.40
-6.48
-4.15
-0.96
2.29
4.98
6.76
7.66
7.86
7.57
6.93
6.07
5.14
4.37
3.95
3.97
4.37
4.91
5.29
5.28
4.83
4.10
3.41
3.15
3.56
4.62
6.01
7.21
7.80
7.59
6.71
5.51
4.42
3.73
3.54
3.73
4.07
4.31
4.21
3.70
2.80
1.66
0.40
-0.83
-1.91
-2.72
-3.13
-3.06
-2.60
-2.12
-2.11
-2.99
-4.83
-7.28
-9.77
-11.77
-13.17
-14.21
-15.36
-16.85
-18.50
-19.68
-19.61
-17.79
-14.26
-9.66
-4.94
-1.07
1.39
2.38
2.35
2.01
1.99
2.64
3.93
5.53
7.02
8.19
8.99
9.55
10.00
10.36
10.50
10.27
9.65
8.82
8.04
7.54
7.32
7.19
6.80
5.85
4.24
2.14
-0.10
-2.08
-3.54
-4.42
-4.89
-5.19
-5.56
-6.13
-6.84
-7.60
-8.28
-8.82
-9.23
-9.58
-9.92
-10.19
-10.29
-10.08
-9.55
-8.86
-8.36
-8.35
-8.90
-9.67
-10.06
-9.46
-7.63
-4.88
-1.91
0.51
1.94
2.41
2.28
1.97
1.70
1.46
1.15
0.78
0.61
0.97
2.05
3.74
5.62
7.15
7.90
7.76
6.90
5.71
4.57
3.74
3.28
3.13
3.15
3.21
3.24
3.16
2.95
2.57
2.09
1.61
1.32
1.33
1.62
1.99
2.07
1.53
0.24
-1.66
-3.80
-5.80
-7.36
-8.32
-8.65
-8.36
-7.50
-6.16
-4.66
-3.44
-2.95
-3.36
-4.48
-5.73
-6.42
-6.04
-4.46
-1.99
0.80
3.31
5.14
6.18
6.59
6.65
6.64
6.69
6.82
7.02
7.25
7.57
8.14
9.10
10.50
12.17
13.80
15.04
15.68
15.70
15.21
14.35
13.19
11.69
9.84
7.72
5.58
3.76
2.51
1.91
1.83
1.97
2.13
2.20
2.19
2.12
1.94
1.49
0.62
-0.67
-2.28
-4.00
-5.62
-7.07
-8.39
-9.62
-10.70
-11.51
-11.86
-11.66
-11.08
-10.42
-9.96
-9.83
-9.85
-9.68
-9.01
-7.69
-5.87
-3.91
-2.25
-1.24
-0.99
-1.43
-2.19
-2.78
-2.70
-1.57
0.62
3.49
6.36
8.59
9.82
10.11
9.80
9.27
8.69
7.99
7.05
5.85
4.52
3.31
2.34
1.55
0.76
-0.17
-1.29
-2.53
-3.82
-5.19
-6.72
-8.32
-9.58
-9.83
-8.48
-5.38
-1.08
3.33
6.63
7.99
7.33
5.20
2.44
-0.37
-3.13
-6.13
-9.74
-14.02
-18.59
-22.70
-25.58
-26.68
-25.85
-23.24
-19.32
-14.79
-10.39
-6.79
-4.34
-3.02
-2.50
-2.33
-2.18
-2.03
-2.14
-2.91
-4.61
-7.13
-10.00
-12.52
-14.03
-14.11
-12.77
-10.30
-7.21
-3.98
-0.96
1.65
3.69
5.04
5.67
5.73
5.61
5.65
5.93
6.07
5.35
3.26
-0.00
-3.28
-4.91
-3.58
0.77
6.76
12.07
14.59
13.52
9.60
4.61
0.37
-2.15
-3.07
-3.12
-2.94
-2.59
-1.44
1.34
6.22
12.92
20.42
27.31
32.35
34.92
35.27
34.37
33.35
32.84
32.49
31.19
27.56
20.93
11.89
2.15
-6.18
-11.58
-13.77
-13.60
-12.45
-11.32
-10.47
-9.49
-7.86
-5.43
-2.58
0.00
1.79
2.60
2.59
1.93
0.62
-1.52
-4.56
-8.22
-11.84
-14.62
-16.04
-16.11
-15.33
-14.38
-13.73
-13.40
-12.98
-11.81
-9.30
-5.17
0.35
6.51
12.16
16.09
17.46
16.03
12.30
7.32
2.30
-1.76
-4.31
-5.27
-4.85
-3.34
-1.09
1.46
3.73
5.01
4.75
2.90
0.01
-2.85
-4.54
-4.40
-2.57
0.06
2.33
3.38
3.06
1.87
0.60
-0.14
-0.12
0.48
1.29
1.93
2.13
1.70
0.57
-1.19
-3.31
-5.41
-7.07
-8.06
-8.45
-8.49
-8.50
-8.60
-8.72
-8.66
-8.23
-7.39
-6.21
-4.82
-3.26
-1.44
0.79
3.56
6.81
10.21
13.22
15.27
15.98
15.29
13.49
11.08
8.57
6.28
4.37
2.86
1.88
1.64
2.39
4.14
6.56
8.98
10.66
11.12
10.40
9.03
7.78
7.27
7.72
8.91
10.34
11.48
11.91
11.44
10.04
7.77
4.75
1.13
-2.76
-6.45
-9.34
-10.85
-10.66
-8.89
-6.14
-3.36
-1.54
-1.28
-2.68
-5.28
-8.26
-10.84
-12.51
-13.05
-12.57
-11.26
-9.40
-7.28
-5.29
-3.86
-3.30
-3.61
-4.37
-4.85
-4.24
-2.05
1.61
6.08
10.33
13.38
14.63
14.08
12.21
9.79
7.49
5.72
4.42
3.25
1.83
-0.02
-2.10
-3.93
-5.09
-5.49
-5.53
-5.87
-7.10
-9.31
-12.02
-14.36
-15.42
-14.62
-11.99
-8.11
-3.94
-0.45
1.63
2.06
1.13
-0.55
-2.37
-3.98
-5.40
-6.85
-8.44
-9.96
-10.95
-10.97
-9.93
-8.21
-6.39
-4.89
-3.56
-1.85
0.74
4.23
7.88
10.62
11.57
10.68
8.71
6.82
5.82
5.78
6.05
5.79
4.56
2.59
0.59
-0.76
-1.22
-1.13
-1.10
-1.60
-2.75
-4.28
-5.81
-7.01
-7.71
-7.78
-7.06
-5.29
-2.31
1.75
6.28
10.31
12.82
13.12
11.14
7.44
2.96
-1.39
-5.03
-7.77
-9.71
-10.94
-11.54
-11.50
-10.94
-10.17
-9.58
-9.47
-9.80
-10.20
-10.16
-9.32
-7.71
-5.73
-3.97
-2.90
-2.57
-2.57
-2.19
-0.68
2.35
6.72
11.56
15.71
18.04
18.05
16.00
12.77
9.45
6.87
5.36
4.80
4.91
5.45
6.33
7.39
8.32
8.68
8.12
6.68
4.88
3.66
3.83
5.82
9.32
13.44
17.02
19.10
19.30
17.92
15.71
13.44
11.49
9.69
7.50
4.48
0.68
-3.22
-6.23
-7.54
-7.07
-5.44
-3.68
-2.66
-2.69
-3.45
-4.40
-5.22
-5.93
-6.86
-8.26
-10.08
-11.95
-13.42
-14.27
-14.59
-14.60
-14.40
-13.79
-12.41
-9.94
-6.50
-2.60
1.03
3.73
5.28
5.79
5.62
5.11
4.53
4.08
4.10
4.95
6.86
9.64
12.56
14.54
14.65
12.53
8.70
4.36
0.89
-0.85
-0.74
0.54
2.09
3.19
3.56
3.32
2.74
1.96
1.00
-0.17
-1.42
-2.41
-2.80
-2.52
-1.88
-1.50
-1.95
-3.42
-5.67
-8.18
-10.47
-12.35
-13.92
-15.45
-17.15
-19.05
-21.00
-22.61
-23.39
-22.73
-20.04
-15.01
-7.89
0.44
8.55
14.97
18.66
19.38
17.61
14.30
10.43
6.76
3.72
1.50
0.17
-0.25
0.18
1.33
2.91
4.50
5.57
5.63
4.42
1.99
-1.16
-4.27
-6.56
-7.50
-7.05
-5.53
-3.53
-1.67
-0.33
0.32
0.33
-0.14
-0.87
-1.65
-2.36
-2.92
-3.35
-3.66
-3.81
-3.75
-3.41
-2.85
-2.27
-1.94
-2.10
-2.82
-3.95
-5.25
-6.46
-7.41
-7.97
-8.10
-7.79
-7.12
-6.32
-5.75
-5.82
-6.76
-8.45
-10.35
-11.52
-11.02
-8.32
-3.66
1.89
6.80
9.73
10.11
8.43
5.98
4.12
3.60
4.28
5.36
6.00
5.88
5.30
4.84
4.91
5.38
5.76
5.56
4.78
4.04
4.19
5.85
8.92
12.52
15.45
16.63
15.68
13.03
9.73
6.97
5.52
5.55
6.58
7.85
8.68
8.78
8.31
7.76
7.59
7.96
8.64
9.05
8.51
6.60
3.41
-0.49
-4.25
-7.11
-8.72
-9.28
-9.36
-9.64
-10.48
-11.83
-13.25
-14.21
-14.31
-13.46
-11.78
-9.54
-7.01
-4.48
-2.20
-0.44
0.68
1.24
1.49
1.83
2.54
3.68
5.11
6.54
7.69
8.48
8.98
9.28
9.40
9.21
8.47
7.04
4.97
2.52
0.07
-2.02
-3.55
-4.42
-4.54
-3.67
-1.46
2.27
7.19
12.39
16.53
18.41
17.45
13.98
9.02
3.76
-0.85
-4.44
-7.02
-8.86
-10.16
-11.04
-11.57
-11.88
-12.12
-12.46
-13.01
-13.79
-14.87
-16.15
-17.41
-18.13
-17.76
-15.93
-12.80
-9.11
-5.86
-3.88
-3.38
-3.94
-4.77
-5.16
-4.83
-3.93
-2.84
-1.78
-0.69
0.67
2.54
4.87
7.29
9.27
10.35
10.26
9.08
7.17
4.99
3.03
1.62
0.91
0.82
1.16
1.63
1.96
1.96
1.52
0.65
-0.51
-1.65
-2.40
-2.45
-1.73
-0.57
0.46
0.67
-0.30
-2.37
-4.95
-7.27
-8.67
-8.91
-8.22
-7.16
-6.33
-6.07
-6.38
-6.98
-7.44
-7.38
-6.61
-5.22
-3.49
-1.78
-0.40
0.52
1.00
1.20
1.34
1.64
2.18
2.99
3.96
4.91
5.70
6.28
6.65
6.81
6.75
6.45
5.96
5.50
5.39
5.84
6.83
7.99
8.81
8.84
7.97
6.42
4.62
2.94
1.53
0.35
-0.60
-1.19
-1.19
-0.50
0.62
1.58
1.68
0.52
-1.80
-4.74
-7.56
-9.73
-11.07
-11.66
-11.66
-11.16
-10.29
-9.34
-8.81
-9.17
-10.53
-12.33
-13.52
-13.08
-10.63
-6.64
-2.26
1.36
3.58
4.57
4.99
5.49
6.34
7.36
8.20
8.66
8.83
8.99
9.31
9.69
9.80
9.30
8.14
6.61
5.19
4.28
4.02
4.31
4.91
5.75
6.91
8.65
11.08
14.04
16.98
19.13
19.76
18.47
15.47
11.55
7.79
5.12
3.96
4.01
4.53
4.78
4.44
3.64
2.72
1.85
0.79
-0.89
-3.49
-6.76
-9.95
-12.16
-12.86
-12.27
-11.32
-11.20
-12.72
-15.86
-19.72
-22.87
-24.04
-22.68
-19.16
-14.56
-10.18
-6.95
-5.20
-4.61
-4.53
-4.37
-3.71
-2.41
-0.51
1.83
4.35
6.69
8.38
8.98
8.22
6.20
3.47
0.85
-0.76
-0.72
1.11
4.37
8.35
12.38
15.93
18.62
20.16
20.29
18.89
16.24
13.00
10.04
8.00
6.98
6.49
5.79
4.42
2.42
0.26
-1.55
-2.79
-3.54
-4.10
-4.60
-5.02
-5.29
-5.50
-5.92
-6.72
-7.79
-8.71
-8.99
-8.48
-7.51
-6.75
-6.74
-7.54
-8.66
-9.34
-9.11
-7.92
-6.16
-4.34
-2.75
-1.42
-0.23
0.94
2.06
3.06
3.84
4.41
4.75
4.80
4.50
3.85
2.92
1.90
0.99
0.36
0.05
0.04
0.27
0.66
1.07
1.34
1.30
0.84
-0.00
-1.08
-2.22
-3.27
-4.22
-5.12
-6.00
-6.84
-7.54
-7.96
-7.95
-7.36
-6.17
-4.49
-2.56
-0.79
0.43
0.90
0.75
0.44
0.52
1.36
2.86
4.47
5.45
5.28
3.96
2.03
0.26
-0.73
-0.75
-0.07
0.80
1.49
1.87
2.06
2.25
2.54
2.94
3.49
4.44
6.17
8.97
12.68
16.53
19.38
20.18
18.56
15.02
10.69
6.70
3.68
1.49
-0.56
-3.16
-6.51
-10.17
-13.29
-15.04
-15.09
-13.76
-11.97
-10.85
-11.25
-13.42
-16.80
-20.28
-22.67
-23.23
-22.10
-20.17
-18.82
-19.27
-22.28
-27.76
-34.93
-42.49
-48.63
-51.24
-48.17
-38.00
-20.94
0.65
22.56
40.11
49.92
51.24
46.11
38.08
30.41
24.68
20.65
17.32
14.23
11.90
11.40
13.10
15.95
17.85
16.78
12.15
5.02
-2.55
-8.97
-14.06
-19.25
-26.40
-36.43
-48.53
-60.28
-68.83
-72.26
-70.42
-64.94
-58.53
-53.88
-52.70
-55.19
-60.09
-65.05
-67.30
-64.41
-54.91
-38.76
-17.49
6.17
28.80
47.23
59.25
64.15
62.70
56.87
49.16
42.10
37.78
37.51
41.77
50.13
61.48
74.22
86.74
97.71
106.29
112.05
114.79
114.43
110.91
104.30
94.72
82.43
67.80
51.32
33.80
16.43
0.75
-11.69
-19.75
-23.11
-22.31
-18.42
-12.52
-5.20
3.40
13.36
24.33
35.25
44.37
49.85
50.48
46.33
38.74
29.85
21.71
15.54
11.32
8.22
5.10
1.10
-4.12
-10.47
-17.70
-25.52
-33.52
-41.10
-47.44
-51.80
-53.80
-53.64
-51.98
-49.73
-47.63
-46.10
-45.19
-44.69
-44.23
-43.41
-41.83
-39.32
-35.98
-32.19
-28.46
-25.11
-22.17
-19.41
-16.59
-13.72
-11.14
-9.26
-8.30
-8.04
-7.89
-7.23
-5.73
-3.53
-1.04
1.33
3.46
5.53
7.78
10.25
12.63
14.37
15.08
14.80
14.15
14.06
15.29
18.01
21.70
25.46
28.40
30.07
30.43
29.65
27.73
24.39
19.17
11.76
2.37
-8.16
-18.57
-27.58
-34.29
-38.42
-40.23
-40.28
-39.20
-37.50
-35.41
-33.00
-30.25
-27.10
-23.58
-19.85
-16.13
-12.68
-9.66
-7.16
-5.23
-3.90
-3.21
-3.19
-3.76
-4.67
-5.53
-5.94
-5.64
-4.63
-3.21
-1.80
-0.89
-0.86
-1.86
-3.80
-6.27
-8.69
-10.36
-10.78
-9.84
-8.02
-6.19
-5.27
-5.85
-7.90
-10.87
-13.97
-16.48
-18.06
-18.70
-18.61
-18.08
-17.39
-16.78
-16.39
-16.13
-15.59
-14.00
-10.58
-4.98
2.23
9.58
15.20
17.56
16.18
11.89
6.36
1.42
-1.78
-2.99
-2.71
-1.62
-0.17
1.51
3.46
5.53
7.29
8.16
7.76
6.17
3.91
1.72
0.23
-0.38
-0.35
-0.13
-0.10
-0.28
-0.34
0.21
1.64
3.78
6.04
7.61
7.95
7.04
5.42
3.85
2.98
3.08
4.08
5.78
8.00
10.58
13.17
15.11
15.48
13.51
8.93
2.28
-5.23
-12.07
-16.96
-19.26
-19.01
-16.88
-13.84
-10.86
-8.73
-7.87
-8.27
-9.46
-10.70
-11.15
-10.18
-7.60
-3.80
0.39
4.04
6.40
7.26
6.99
6.34
6.03
6.55
7.96
10.05
12.50
15.02
17.40
19.34
20.52
20.69
19.93
18.75
17.82
17.69
18.33
19.01
18.72
16.68
12.90
8.22
3.95
1.33
1.01
2.96
6.59
11.08
15.54
19.06
20.80
20.11
16.88
11.72
5.94
1.14
-1.35
-1.10
1.35
4.61
7.11
7.73
6.02
2.26
-2.85
-8.48
-13.84
-18.31
-21.36
-22.77
-22.58
-21.22
-19.40
-17.83
-17.02
-17.06
-17.68
-18.31
-18.39
-17.31
-14.58
-9.87
-3.18
4.96
13.52
21.14
26.61
29.27
29.28
27.53
25.30
23.78
23.69
25.14
27.71
30.60
32.87
33.67
32.44
29.00
23.67
17.13
10.31
4.10
-0.82
-4.15
-5.92
-6.47
-6.25
-5.73
-5.26
-5.08
-5.30
-5.89
-6.77
-7.85
-9.14
-10.77
-13.02
-16.17
-20.30
-25.10
-29.78
-33.28
-34.60
-33.22
-29.27
-23.57
-17.34
-11.68
-7.29
-4.35
-2.59
-1.60
-1.00
-0.59
-0.24
0.18
0.83
1.81
3.11
4.47
5.57
6.21
6.39
6.42
6.66
7.32
8.23
8.98
9.06
8.21
6.55
4.47
2.47
0.91
-0.18
-1.06
-2.03
-3.24
-4.60
-5.78
-6.40
-6.31
-5.58
-4.54
-3.54
-2.83
-2.55
-2.71
-3.36
-4.58
-6.43
-8.85
-11.52
-13.89
-15.21
-14.70
-11.85
-6.66
0.19
7.41
13.38
16.78
17.06
14.63
10.66
6.57
3.47
1.81
1.52
2.28
3.78
5.85
8.30
10.71
12.49
13.07
12.25
10.33
8.03
6.09
4.93
4.48
4.30
3.92
3.15
2.20
1.56
1.70
2.82
4.74
6.94
8.72
9.49
8.83
6.77
3.70
0.31
-2.59
-4.38
-4.81
-4.11
-2.81
-1.50
-0.62
-0.27
-0.31
-0.54
-0.86
-1.38
-2.29
-3.68
-5.39
-7.03
-8.12
-8.33
-7.64
-6.29
-4.63
-3.04
-1.71
-0.78
-0.27
-0.18
-0.47
-0.93
-1.32
-1.35
-0.86
0.13
1.45
2.82
3.99
4.73
4.86
4.28
3.02
1.29
-0.42
-1.54
-1.54
-0.35
1.66
3.66
4.72
4.23
2.06
-1.28
-4.97
-8.14
-10.22
-11.09
-10.96
-10.21
-9.17
-8.00
-6.80
-5.79
-5.37
-6.07
-8.32
-12.21
-17.34
-22.95
-28.17
-32.32
-35.08
-36.48
-36.75
-36.20
-35.03
-33.37
-31.20
-28.34
-24.43
-18.96
-11.41
-1.61
10.04
22.42
33.89
42.83
48.17
49.84
48.73
46.26
43.65
41.54
39.72
37.51
34.19
29.41
23.31
16.47
9.64
3.57
-1.17
-4.34
-6.13
-7.11
-8.03
-9.43
-11.30
-13.03
-13.75
-12.85
-10.41
-7.31
-4.88
-4.21
-5.74
-8.99
-12.89
-16.14
-17.64
-16.68
-13.01
-6.84
1.14
9.78
17.67
23.52
26.43
26.24
23.33
18.45
12.29
5.39
-1.80
-8.77
-14.81
-19.18
-21.34
-21.18
-19.07
-15.61
-11.49
-7.24
-3.39
-0.41
1.16
1.02
-0.76
-3.62
-6.70
-9.19
-10.62
-10.99
-10.68
-10.21
-10.08
-10.62
-11.96
-13.97
-16.28
-18.15
-18.62
-16.57
-11.16
-2.04
10.29
24.68
39.52
53.16
64.18
71.50
74.45
72.81
66.85
57.44
45.87
33.57
21.69
10.88
1.31
-6.98
-13.87
-19.11
-22.52
-24.37
-25.32
-26.16
-27.30
-28.53
-29.22
-28.78
-27.23
-25.17
-23.43
-22.42
-21.79
-20.40
-16.92
-10.42
-0.94
10.39
21.69
30.86
36.26
37.25
34.35
28.89
22.51
16.39
10.99
6.10
1.41
-3.06
-6.75
-8.86
-8.87
-7.01
-4.32
-2.32
-2.29
-4.76
-9.29
-14.63
-19.14
-21.47
-20.90
-17.53
-12.15
-5.86
0.35
6.00
11.06
15.79
20.37
24.73
28.54
31.46
33.29
33.83
32.84
29.88
24.53
16.84
7.63
-1.55
-8.97
-13.51
-15.27
-15.58
-16.30
-18.86
-23.46
-28.88
-33.07
-34.14
-31.25
-25.05
-17.37
-10.38
-5.67
-3.69
-3.71
-4.41
-4.63
-3.84
-2.21
-0.12
2.23
5.11
8.96
13.89
19.29
23.85
26.00
24.61
19.51
11.60
2.54
-5.95
-12.56
-16.73
-18.56
-18.60
-17.61
-16.31
-15.30
-14.95
-15.31
-16.05
-16.59
-16.27
-14.62
-11.57
-7.41
-2.70
1.99
6.34
10.28
13.95
17.53
21.14
24.78
28.38
31.71
34.32
35.48
34.28
29.98
22.42
12.38
1.42
-8.50
-15.85
-20.06
-21.60
-21.58
-21.04
-20.47
-19.77
-18.61
-16.88
-14.86
-13.04
-11.75
-10.85
-9.84
-8.23
-5.89
-3.20
-0.81
0.72
1.23
0.99
0.54
0.35
0.68
1.42
2.24
2.65
2.11
0.28
-2.86
-6.98
-11.30
-14.96
-17.28
-18.08
-17.76
-17.11
-17.03
-18.09
-20.47
-23.80
-27.29
-29.87
-30.29
-27.45
-20.80
-10.69
1.46
13.45
23.03
28.75
30.43
29.17
26.64
24.22
22.52
21.27
19.79
17.58
14.59
11.20
7.87
4.93
2.51
0.75
-0.10
0.35
2.41
6.06
10.86
15.98
20.43
23.30
24.02
22.44
18.87
13.95
8.52
3.41
-0.67
-3.28
-4.35
-4.23
-3.57
-3.21
-3.89
-5.97
-9.25
-12.91
-15.74
-16.55
-14.50
-9.50
-2.18
6.27
14.45
21.07
25.16
26.23
24.24
19.53
12.80
5.05
-2.57
-9.02
-13.55
-15.95
-16.50
-15.84
-14.61
-13.30
-12.16
-11.25
-10.48
-9.72
-8.67
-6.95
-4.23
-0.43
4.08
8.51
11.96
13.79
13.89
12.69
10.90
9.06
7.46
6.04
4.62
3.17
1.82
0.78
0.16
-0.14
-0.47
-1.16
-2.40
-4.09
-5.87
-7.30
-8.06
-8.07
-7.50
-6.70
-6.00
-5.61
-5.54
-5.66
-5.75
-5.70
-5.58
-5.64
-6.23
-7.63
-9.87
-12.59
-15.13
-16.78
-17.01
-15.69
-13.09
-9.70
-6.00
-2.38
0.88
3.42
4.88
5.03
3.96
2.30
0.94
0.69
1.89
4.23
6.99
9.37
10.88
11.51
11.52
11.23
10.80
10.23
9.48
8.56
7.61
6.73
5.95
5.13
4.06
2.57
0.71
-1.27
-2.95
-3.88
-3.85
-2.94
-1.55
-0.25
0.44
0.30
-0.63
-2.02
-3.50
-4.81
-5.87
-6.75
-7.47
-8.03
-8.41
-8.69
-9.07
-9.79
-11.00
-12.56
-14.10
-15.07
-15.03
-13.80
-11.53
-8.64
-5.63
-2.94
-0.86
0.46
1.02
0.94
0.44
-0.11
-0.27
0.43
2.29
5.29
9.03
12.80
15.83
17.58
17.95
17.20
15.83
14.26
12.74
11.42
10.36
9.64
9.27
9.15
8.95
8.25
6.75
4.47
1.80
-0.63
-2.29
-2.87
-2.44
-1.43
-0.44
-0.03
-0.56
-2.08
-4.26
-6.52
-8.31
-9.28
-9.41
-8.99
-8.49
-8.31
-8.68
-9.62
-10.93
-12.25
-13.16
-13.19
-11.93
-9.26
-5.46
-1.20
2.56
4.96
5.57
4.45
2.19
-0.41
-2.57
-3.77
-3.64
-2.03
1.15
5.80
11.51
17.50
22.71
26.21
27.41
26.36
23.66
20.10
16.43
13.09
10.27
7.97
6.12
4.70
3.68
3.00
2.57
2.26
1.88
1.21
0.12
-1.47
-3.38
-5.29
-6.83
-7.77
-8.16
-8.30
-8.68
-9.77
-11.88
-14.99
-18.73
-22.41
-25.21
-26.41
-25.70
-23.30
-19.88
-16.25
-13.03
-10.50
-8.55
-6.90
-5.33
-3.80
-2.35
-1.06
0.09
1.15
2.12
2.92
3.39
3.49
3.25
2.90
2.72
2.90
3.40
3.99
4.30
4.06
3.16
1.62
-0.51
-3.20
-6.50
-10.25
-13.96
-16.63
-17.01
-14.07
-7.52
1.78
12.01
20.99
27.04
29.55
29.02
26.60
23.47
20.29
17.19
13.92
10.27
6.26
2.10
-1.81
-5.06
-7.32
-8.31
-8.06
-6.89
-5.41
-4.27
-3.90
-4.25
-4.90
-5.36
-5.39
-5.05
-4.52
-3.82
-2.76
-1.09
1.19
3.64
5.56
6.26
5.49
3.60
1.26
-0.77
-2.07
-2.61
-2.70
-2.72
-2.90
-3.25
-3.60
-3.76
-3.68
-3.44
-3.24
-3.24
-3.47
-3.84
-4.23
-4.66
-5.30
-6.43
-8.18
-10.38
-12.50
-13.75
-13.54
-11.69
-8.65
-5.27
-2.45
-0.71
-0.04
0.05
0.14
0.55
1.20
1.77
1.98
1.83
1.65
1.87
2.75
4.31
6.35
8.70
11.22
13.82
16.31
18.24
19.10
18.46
16.33
13.23
10.01
7.51
6.20
6.08
6.82
7.94
9.08
9.95
10.35
10.16
9.32
8.02
6.67
5.69
5.38
5.64
6.07
6.13
5.48
4.11
2.31
0.47
-1.22
-2.80
-4.60
-6.93
-9.88
-13.17
-16.19
-18.15
-18.49
-17.06
-14.30
-11.01
-8.02
-5.77
-4.25
-3.10
-1.95
-0.73
0.36
0.99
1.03
0.69
0.50
1.05
2.68
5.26
8.26
10.88
12.46
12.68
11.71
10.07
8.36
7.02
6.18
5.65
5.16
4.47
3.46
2.07
0.32
-1.81
-4.24
-6.77
-9.04
-10.71
-11.55
-11.59
-11.08
-10.34
-9.62
-9.00
-8.43
-7.90
-7.53
-7.54
-8.18
-9.53
-11.35
-13.17
-14.40
-14.61
-13.69
-11.85
-9.51
-7.08
-4.87
-2.96
-1.30
0.22
1.65
2.96
3.99
4.57
4.56
3.94
2.92
1.85
1.17
1.22
2.10
3.62
5.36
6.88
7.87
8.18
7.84
6.99
5.85
4.65
3.67
3.09
2.97
3.20
3.51
3.60
3.26
2.49
1.42
0.30
-0.67
-1.36
-1.82
-2.15
-2.48
-2.84
-3.18
-3.35
-3.21
-2.79
-2.26
-1.91
-2.02
-2.64
-3.61
-4.60
-5.31
-5.62
-5.55
-5.19
-4.61
-3.82
-2.82
-1.66
-0.47
0.62
1.60
2.53
3.52
4.60
5.64
6.47
6.97
7.24
7.52
8.03
8.80
9.61
10.15
10.21
9.88
9.47
9.33
9.68
10.43
11.31
12.02
12.38
12.45
12.27
11.87
11.24
10.31
9.14
7.87
6.67
5.59
4.58
3.54
2.44
1.38
0.55
0.03
-0.19
-0.35
-0.67
-1.23
-1.97
-2.69
-3.23
-3.53
-3.70
-3.96
-4.56
-5.78
-7.76
-10.45
-13.51
-16.36
-18.28
-18.75
-17.59
-15.11
-11.95
-8.79
-6.14
-4.17
-2.83
-1.94
-1.41
-1.20
-1.23
-1.31
-1.10
-0.32
1.17
3.14
5.09
6.49
7.02
6.78
6.18
5.72
5.72
6.13
6.65
6.89
6.66
6.00
5.13
4.26
3.45
2.62
1.60
0.31
-1.14
-2.47
-3.38
-3.75
-3.75
-3.70
-3.98
-4.78
-5.96
-7.22
-8.21
-8.78
-9.08
-9.37
-9.97
-10.98
-12.34
-13.79
-15.06
-15.92
-16.22
-15.87
-14.82
-13.12
-10.89
-8.32
-5.65
-3.13
-0.98
0.64
1.60
1.94
1.77
1.41
1.21
1.50
2.40
3.84
5.57
7.22
8.51
9.25
9.38
8.97
8.14
7.12
6.23
5.77
5.90
6.53
7.29
7.78
7.71
7.07
6.10
5.12
4.26
3.41
2.35
0.89
-0.92
-2.78
-4.33
-5.33
-5.85
-6.15
-6.59
-7.38
-8.57
-10.05
-11.64
-13.20
-14.54
-15.48
-15.77
-15.26
-13.90
-11.85
-9.37
-6.81
-4.40
-2.33
-0.61
0.80
1.95
2.90
3.64
4.24
4.79
5.42
6.18
7.05
7.86
8.45
8.77
8.88
8.93
9.04
9.15
9.03
8.48
7.46
6.17
4.95
4.10
3.67
3.59
3.81
4.48
5.89
8.24
11.29
14.35
16.49
17.05
15.90
13.54
10.75
8.14
5.86
3.73
1.43
-1.11
-3.61
-5.58
-6.69
-6.96
-6.83
-6.81
-7.29
-8.29
-9.55
-10.72
-11.65
-12.45
-13.37
-14.52
-15.64
-16.11
-15.26
-12.77
-8.84
-4.24
0.05
3.20
4.82
5.02
4.25
3.07
2.01
1.45
1.61
2.46
3.82
5.33
6.61
7.45
7.84
7.98
8.14
8.43
8.76
8.91
8.62
7.78
6.52
5.04
3.51
2.01
0.50
-1.02
-2.45
-3.56
-4.13
-4.09
-3.71
-3.40
-3.62
-4.59
-6.13
-7.81
-9.13
-9.77
-9.70
-9.21
-8.71
-8.66
-9.33
-10.76
-12.74
-14.78
-16.29
-16.71
-15.68
-13.19
-9.59
-5.53
-1.70
1.31
3.22
4.07
4.11
3.68
3.11
2.62
2.25
2.03
1.93
1.98
2.27
2.88
3.84
5.08
6.37
7.43
8.03
8.06
7.63
7.00
6.45
6.19
6.20
6.29
6.20
5.76
4.97
3.93
2.83
1.81
0.89
0.01
-0.91
-1.96
-3.17
-4.55
-6.03
-7.49
-8.72
-9.41
-9.30
-8.33
-6.73
-5.04
-3.87
-3.61
-4.26
-5.43
-6.56
-7.23
-7.32
-6.94
-6.22
-5.14
-3.57
-1.49
0.96
3.42
5.49
6.99
7.91
8.46
8.74
8.81
8.64
8.30
8.00
8.01
8.55
9.59
10.90
12.16
13.07
13.50
13.44
12.96
12.17
11.23
10.32
9.59
9.09
8.72
8.27
7.50
6.29
4.71
2.95
1.21
-0.36
-1.79
-3.24
-4.78
-6.37
-7.79
-8.76
-9.09
-8.75
-7.94
-6.93
-6.03
-5.47
-5.48
-6.16
-7.55
-9.46
-11.48
-12.99
-13.38
-12.31
-9.88
-6.62
-3.24
-0.35
1.74
3.08
3.96
4.71
5.56
6.57
7.67
8.74
9.67
10.40
10.92
11.18
11.10
10.60
9.67
8.44
7.16
6.12
5.49
5.23
5.07
4.62
3.61
2.05
0.23
-1.31
-2.15
-2.14
-1.49
-0.76
-0.50
-1.06
-2.40
-4.17
-5.92
-7.35
-8.47
-9.48
-10.62
-11.99
-13.49
-14.92
-16.18
-17.31
-18.44
-19.55
-20.34
-20.29
-18.85
-15.83
-11.56
-6.84
-2.66
0.27
1.68
1.90
1.51
1.21
1.47
2.41
3.92
5.65
7.24
8.40
9.05
9.23
9.17
9.09
9.15
9.34
9.55
9.66
9.60
9.40
9.08
8.64
7.95
6.92
5.57
4.02
2.51
1.22
0.23
-0.50
-1.10
-1.77
-2.72
-4.07
-5.81
-7.70
-9.36
-10.38
-10.54
-9.94
-8.94
-8.05
-7.66
-8.01
-9.12
-10.87
-13.01
-15.21
-16.93
-17.46
-16.16
-12.72
-7.42
-1.18
4.72
9.13
11.41
11.60
10.32
8.47
6.81
5.82
5.61
6.05
6.90
7.97
9.05
9.91
10.32
10.12
9.37
8.30
7.32
6.77
6.77
7.17
7.60
7.70
7.30
6.49
5.59
4.99
4.89
5.26
5.83
6.24
6.21
5.63
4.59
3.24
1.76
0.36
-0.77
-1.38
-1.34
-0.69
0.23
0.90
0.84
-0.11
-1.62
-2.89
-3.08
-1.68
1.16
4.60
7.47
8.80
8.22
6.03
3.03
0.04
-2.36
-3.98
-4.88
-5.23
-5.10
-4.52
-3.56
-2.35
-1.08
0.11
1.21
2.25
3.27
4.21
5.00
5.51
5.73
5.66
5.27
4.51
3.41
2.13
1.09
0.79
1.56
3.36
5.65
7.63
8.55
8.03
6.26
3.90
1.73
0.36
-0.01
0.42
1.22
1.91
2.13
1.72
0.65
-1.05
-3.24
-5.67
-8.01
-9.87
-10.97
-11.35
-11.39
-11.71
-12.85
-15.02
-17.84
-20.51
-22.07
-21.80
-19.50
-15.58
-10.79
-5.98
-1.81
1.34
3.33
4.14
3.88
2.75
1.17
-0.34
-1.24
-1.23
-0.31
1.20
2.92
4.55
5.96
7.15
8.06
8.50
8.20
7.07
5.31
3.41
1.89
1.09
1.00
1.26
1.45
1.21
0.42
-0.90
-2.57
-4.39
-6.09
-7.39
-7.98
-7.71
-6.64
-5.16
-3.81
-3.06
-3.16
-3.98
-5.19
-6.44
-7.46
-8.12
-8.35
-8.02
-6.97
-5.11
-2.60
0.13
2.52
4.09
4.73
4.74
4.64
4.90
5.66
6.64
7.28
7.12
5.98
4.14
2.21
0.79
0.33
0.93
2.34
4.12
5.84
7.23
8.20
8.81
9.15
9.25
9.06
8.52
7.63
6.44
5.09
3.69
2.31
0.91
-0.48
-1.76
-2.75
-3.28
-3.39
-3.36
-3.59
-4.37
-5.69
-7.20
-8.41
-8.90
-8.53
-7.49
-6.17
-5.00
-4.35
-4.43
-5.24
-6.50
-7.73
-8.36
-8.00
-6.61
-4.50
-2.18
-0.06
1.74
3.27
4.65
5.78
6.43
6.41
5.80
4.96
4.32
4.21
4.54
5.06
5.50
5.80
6.15
6.82
7.85
9.03
9.97
10.34
10.09
9.46
8.79
8.35
8.12
7.86
7.33
6.43
5.33
4.35
3.71
3.35
2.92
1.99
0.37
-1.72
-3.71
-5.03
-5.40
-4.96
-4.21
-3.63
-3.48
-3.67
-3.95
-4.11
-4.11
-4.04
-4.10
-4.48
-5.25
-6.37
-7.70
-8.89
-9.53
-9.24
-7.89
-5.79
-3.57
-1.86
-1.04
-0.94
-1.03
-0.64
0.55
2.49
4.71
6.61
7.78
8.05
7.53
6.56
5.55
4.81
4.53
4.71
5.13
5.51
5.63
5.35
4.73
3.86
2.83
1.65
0.35
-1.05
-2.41
-3.61
-4.59
-5.42
-6.27
-7.26
-8.42
-9.56
-10.50
-11.08
-11.30
-11.37
-11.53
-12.05
-12.97
-14.14
-15.27
-15.97
-15.95
-15.03
-13.18
-10.51
-7.26
-3.77
-0.43
2.37
4.33
5.35
5.52
5.06
4.32
3.56
2.97
2.66
2.74
3.26
4.22
5.46
6.64
7.42
7.58
7.17
6.59
6.29
6.55
7.32
8.20
8.79
8.86
8.57
8.20
7.99
7.88
7.51
6.48
4.65
2.23
-0.25
-2.25
-3.48
-3.97
-4.00
-3.91
-3.92
-4.16
-4.69
-5.56
-6.90
-8.68
-10.78
-12.89
-14.59
-15.51
-15.45
-14.38
-12.41
-9.74
-6.65
-3.47
-0.58
1.64
3.02
3.57
3.56
3.44
3.61
4.30
5.45
6.82
8.08
9.01
9.53
9.73
9.83
10.04
10.47
11.12
11.85
12.49
12.84
12.83
12.42
11.69
10.68
9.42
7.93
6.18
4.22
2.10
-0.02
-1.87
-3.15
-3.62
-3.20
-2.11
-0.78
0.23
0.49
-0.09
-1.30
-2.73
-4.01
-4.97
-5.74
-6.51
-7.47
-8.56
-9.49
-9.79
-9.04
-6.99
-3.75
0.24
4.28
7.71
10.04
11.12
11.07
10.19
8.82
7.23
5.72
4.63
4.29
4.90
6.37
8.23
9.92
10.88
10.86
9.92
8.33
6.40
4.41
2.59
1.14
0.29
0.12
0.50
1.08
1.35
0.95
-0.20
-1.85
-3.63
-5.21
-6.52
-7.60
-8.58
-9.54
-10.55
-11.66
-12.97
-14.53
-16.30
-18.09
-19.62
-20.56
-20.78
-20.21
-18.95
-17.18
-15.12
-12.98
-10.96
-9.12
-7.42
-5.74
-4.00
-2.29
-0.77
0.47
1.59
2.96
4.93
7.54
10.37
12.70
13.92
13.85
12.79
11.36
10.10
9.22
8.68
8.31
7.99
7.69
7.35
6.82
5.97
4.81
3.57
2.64
2.21
2.19
2.11
1.54
0.32
-1.27
-2.73
-3.69
-4.14
-4.39
-4.83
-5.57
-6.45
-7.25
-7.87
-8.53
-9.57
-11.10
-12.82
-14.07
-14.14
-12.68
-9.94
-6.62
-3.56
-1.27
0.14
0.95
1.54
2.10
2.63
3.00
3.17
3.23
3.37
3.72
4.28
4.95
5.68
6.54
7.72
9.34
11.31
13.25
14.65
15.07
14.37
12.77
10.77
8.89
7.57
6.94
6.93
7.26
7.59
7.64
7.19
6.19
4.72
2.96
1.14
-0.52
-1.84
-2.66
-2.89
-2.54
-1.82
-1.06
-0.64
-0.89
-1.93
-3.69
-5.96
-8.45
-10.85
-12.81
-14.01
-14.14
-13.01
-10.68
-7.41
-3.71
-0.09
3.02
5.39
6.96
7.78
7.98
7.79
7.49
7.40
7.73
8.45
9.32
9.99
10.22
10.08
9.85
9.87
10.20
10.57
10.49
9.53
7.63
5.19
2.84
1.10
0.13
-0.41
-1.08
-2.32
-4.26
-6.62
-8.90
-10.65
-11.55
-11.55
-10.79
-9.63
-8.68
-8.63
-10.01
-12.94
-16.84
-20.56
-22.86
-22.87
-20.58
-16.74
-12.53
-8.95
-6.45
-4.94
-4.01
-3.40
-2.92
-2.44
-1.62
0.00
2.75
6.52
10.64
14.07
15.96
16.02
14.60
12.43
10.22
8.31
6.75
5.47
4.50
4.02
4.14
4.66
5.16
5.13
4.27
2.65
0.57
-1.61
-3.68
-5.58
-7.29
-8.66
-9.49
-9.63
-9.15
-8.41
-7.84
-7.76
-8.18
-8.87
-9.54
-10.08
-10.64
-11.45
-12.60
-13.90
-14.85
-14.87
-13.57
-10.84
-6.99
-2.65
1.46
4.65
6.55
7.14
6.74
5.80
4.70
3.61
2.51
1.38
0.44
0.24
1.39
4.21
8.39
13.03
16.97
19.36
19.96
19.15
17.60
15.88
14.28
12.86
11.63
10.74
10.38
10.64
11.28
11.84
11.85
11.06
9.65
8.00
6.53
5.45
4.65
3.89
2.88
1.47
-0.32
-2.34
-4.32
-5.98
-7.07
-7.51
-7.37
-6.87
-6.27
-5.73
-5.37
-5.26
-5.49
-6.12
-7.07
-8.08
-8.71
-8.53
-7.27
-5.00
-2.05
1.11
4.05
6.57
8.55
9.96
10.77
10.92
10.38
9.25
7.81
6.46
5.68
5.79
6.88
8.68
10.63
12.11
12.59
11.93
10.30
8.12
5.87
3.90
2.29
0.92
-0.45
-1.96
-3.49
-4.73
-5.34
-5.25
-4.70
-4.21
-4.27
-4.99
-6.10
-7.05
-7.44
-7.28
-6.97
-7.00
-7.62
-8.69
-9.77
-10.48
-10.75
-10.90
-11.42
-12.57
-14.26
-15.93
-16.93
-16.73
-15.22
-12.72
-9.81
-7.06
-4.83
-3.13
-1.70
-0.17
1.71
3.96
6.35
8.50
10.07
10.95
11.23
11.14
10.86
10.42
9.74
8.80
7.79
7.16
7.35
8.55
10.52
12.62
14.11
14.42
13.45
11.35
8.48
5.18
1.81
-1.22
-3.48
-4.57
-4.45
-3.48
-2.36
-1.80
-2.21
-3.52
-5.30
-7.03
-8.37
-9.27
-9.89
-10.41
-10.83
-10.96
-10.54
-9.43
-7.74
-5.87
-4.35
-3.62
-3.79
-4.58
-5.41
-5.70
-5.09
-3.74
-2.09
-0.69
0.17
0.54
0.69
0.94
1.35
1.72
1.73
1.17
0.12
-1.12
-2.08
-2.49
-2.31
-1.80
-1.31
-1.12
-1.32
-1.84
-2.51
-3.27
-4.12
-5.12
-6.29
-7.52
-8.63
-9.40
-9.74
-9.64
-9.14
-8.33
-7.27
-6.06
-4.86
-3.83
-3.08
-2.54
-2.04
-1.37
-0.44
0.65
1.70
2.47
2.83
2.80
2.49
2.11
1.87
2.01
2.65
3.69
4.81
5.50
5.40
4.49
3.14
1.97
1.44
1.70
2.44
3.11
3.26
2.69
1.58
0.26
-0.93
-1.83
-2.48
-3.04
-3.70
-4.57
-5.64
-6.76
-7.73
-8.37
-8.62
-8.54
-8.30
-8.04
-7.82
-7.51
-6.97
-6.03
-4.66
-2.95
-1.12
0.60
1.95
2.81
3.11
2.97
2.67
2.49
2.67
3.28
4.18
5.13
5.89
6.33
6.47
6.44
6.33
6.16
5.83
5.24
4.40
3.49
2.79
2.50
2.67
3.11
3.48
3.45
2.88
1.83
0.56
-0.66
-1.76
-2.86
-4.20
-5.98
-8.21
-10.74
-13.26
-15.56
-17.62
-19.54
-21.53
-23.77
-26.37
-29.36
-32.74
-36.39
-40.15
-43.76
-46.87
-49.32
-51.13
-52.68
-54.55
-57.33
-61.23
-65.92
-70.36
-73.03
-72.28
-66.97
-56.97
-43.30
-27.95
-13.14
-0.57
9.11
16.38
22.35
28.22
34.74
42.05
49.82
57.46
64.33
69.79
73.24
74.25
72.77
69.15
64.20
58.97
54.40
51.14
49.39
48.86
48.84
48.38
46.55
42.77
37.01
29.94
22.73
16.63
12.62
11.00
11.40
12.94
14.50
15.12
14.27
11.89
8.44
4.59
1.04
-1.79
-3.79
-5.12
-5.94
-6.31
-6.05
-4.98
-3.04
-0.53
1.98
3.85
4.69
4.49
3.65
2.72
2.14
2.01
2.02
1.61
0.25
-2.30
-5.78
-9.41
-12.11
-12.69
-10.14
-3.84
6.18
19.03
32.98
45.66
54.71
58.46
56.50
49.87
40.53
30.63
21.57
13.67
6.35
-1.25
-9.51
-18.00
-25.68
-31.48
-34.81
-35.84
-35.32
-34.14
-32.84
-31.42
-29.45
-26.50
-22.46
-17.80
-13.36
-10.04
-8.37
-8.21
-8.74
-8.71
-6.84
-2.31
4.82
13.51
21.99
28.40
31.48
31.14
28.41
24.95
22.28
21.05
20.90
20.73
19.30
15.85
10.28
3.15
-4.70
-12.37
-19.15
-24.51
-28.12
-29.79
-29.50
-27.39
-23.82
-19.36
-14.73
-10.62
-7.55
-5.73
-5.03
-5.12
-5.66
-6.41
-7.30
-8.33
-9.38
-10.23
-10.58
-10.26
-9.33
-8.00
-6.55
-5.11
-3.64
-2.04
-0.26
1.56
3.19
4.43
5.27
5.97
6.92
8.32
10.02
11.55
12.28
11.84
10.27
8.04
5.84
4.21
3.34
3.05
2.98
2.89
2.72
2.61
2.68
2.88
3.00
2.80
2.20
1.36
0.55
0.04
-0.08
0.08
0.36
0.60
0.77
0.92
1.10
1.37
1.66
1.80
1.53
0.56
-1.20
-3.61
-6.23
-8.42
-9.61
-9.55
-8.36
-6.46
-4.37
-2.42
-0.79
0.45
1.21
1.45
1.21
0.79
0.69
1.35
2.92
5.03
7.00
8.12
8.01
6.82
5.12
3.58
2.64
2.40
2.54
2.63
2.28
1.29
-0.34
-2.37
-4.47
-6.17
-6.98
-6.51
-4.70
-1.91
1.08
3.32
4.11
3.33
1.47
-0.55
-1.86
-2.12
-1.64
-1.15
-1.33
-2.40
-4.07
-5.74
-6.91
-7.38
-7.31
-6.95
-6.46
-5.81
-4.84
-3.48
-1.86
-0.26
0.98
1.64
1.69
1.26
0.60
-0.04
-0.40
-0.28
0.42
1.67
3.22
4.74
5.96
6.73
7.13
7.29
7.27
7.00
6.22
4.74
2.62
0.15
-2.24
-4.21
-5.68
-6.79
-7.72
-8.51
-9.06
-9.22
-9.06
-8.93
-9.35
-10.73
-13.16
-16.34
-19.75
-22.84
-25.26
-26.78
-27.33
-26.96
-25.92
-24.76
-24.23
-25.07
-27.56
-31.24
-34.83
-36.60
-34.87
-28.71
-18.36
-5.25
8.39
20.21
28.48
32.44
32.34
29.07
23.60
16.66
8.70
0.08
-8.67
-16.66
-22.85
-26.27
-26.39
-23.32
-17.81
-11.10
-4.69
-0.01
1.96
0.90
-2.77
-8.09
-13.88
-19.02
-22.60
-23.93
-22.55
-18.31
-11.52
-3.01
6.01
14.28
20.86
25.39
27.97
29.00
28.88
27.88
26.25
24.23
22.12
20.25
18.82
17.88
17.36
17.20
17.32
17.66
18.08
18.35
18.21
17.47
16.16
14.53
12.95
11.74
11.05
10.70
10.32
9.44
7.74
5.18
2.05
-1.25
-4.30
-6.88
-8.86
-10.24
-11.04
-11.31
-11.06
-10.38
-9.40
-8.26
-7.08
-5.97
-4.94
-3.96
-2.85
-1.36
0.78
3.71
7.26
10.91
13.95
15.73
16.03
15.13
13.73
12.53
11.99
12.07
12.36
12.42
12.03
11.33
10.74
10.62
11.06
11.82
12.52
12.90
12.98
12.99
13.16
13.47
13.65
13.31
12.20
10.45
8.46
6.73
5.58
4.97
4.56
3.92
2.80
1.21
-0.58
-2.26
-3.57
-4.42
-4.82
-4.82
-4.47
-3.78
-2.82
-1.80
-1.05
-0.94
-1.73
-3.40
-5.58
-7.57
-8.63
-8.22
-6.25
-3.10
0.43
3.52
5.54
6.34
6.18
5.62
5.20
5.28
5.93
6.96
8.00
8.64
8.45
7.19
4.83
1.65
-1.83
-4.95
-7.21
-8.36
-8.48
-7.89
-6.98
-6.04
-5.27
-4.77
-4.61
-4.85
-5.49
-6.36
-7.15
-7.44
-6.92
-5.46
-3.23
-0.63
1.78
3.43
3.83
2.69
-0.03
-4.08
-8.87
-13.65
-17.63
-20.17
-20.97
-20.10
-17.94
-15.05
-11.98
-9.23
-7.12
-5.83
-5.41
-5.74
-6.53
-7.30
-7.57
-6.97
-5.41
-3.23
-1.00
0.68
1.42
1.24
0.56
0.02
0.19
1.39
3.58
6.33
9.03
10.93
11.41
10.12
7.02
2.51
-2.69
-7.70
-11.71
-14.12
-14.69
-13.52
-10.97
-7.59
-4.07
-1.10
0.73
1.09
0.07
-1.85
-3.98
-5.72
-6.72
-7.03
-6.92
-6.68
-6.45
-6.17
-5.70
-4.94
-3.85
-2.45
-0.73
1.36
3.79
6.41
8.93
11.00
12.36
12.98
13.03
12.78
12.44
12.07
11.59
10.96
10.25
9.70
9.53
9.86
10.52
11.06
11.01
10.07
8.35
6.26
4.38
3.14
2.58
2.46
2.43
2.30
2.08
2.06
2.43
3.22
4.22
5.06
5.49
5.53
5.46
5.61
6.23
7.29
8.51
9.51
10.04
10.03
9.68
9.27
9.13
9.54
10.77
13.03
16.46
20.85
25.47
28.97
29.68
26.10
17.64
5.00
-9.81
-24.02
-35.00
-41.01
-41.58
-37.45
-30.11
-21.30
-12.61
-5.28
0.00
3.03
4.20
4.37
4.61
5.87
8.57
12.46
16.77
20.51
22.89
23.58
22.78
21.17
19.63
18.96
19.58
21.23
22.86
22.90
19.73
12.29
0.69
-13.81
-29.09
-42.90
-53.53
-60.17
-62.93
-62.42
-59.47
-54.89
-49.32
-43.34
-37.45
-32.04
-27.37
-23.53
-20.42
-17.81
-15.38
-12.92
-10.38
-7.95
-5.94
-4.60
-3.93
-3.51
-2.66
-0.74
2.53
6.86
11.49
15.45
18.02
18.96
18.56
17.49
16.44
15.87
15.98
16.66
17.76
19.05
20.36
21.41
21.87
21.47
20.14
18.09
15.79
13.69
12.01
10.59
9.00
6.77
3.57
-0.63
-5.67
-11.29
-17.27
-23.34
-29.20
-34.39
-38.39
-40.69
-40.92
-38.97
-34.99
-29.35
-22.57
-15.29
-8.16
-1.78
3.40
7.10
9.32
10.32
10.52
10.42
10.44
10.81
11.51
12.32
12.95
13.17
12.96
12.41
11.74
11.02
10.23
9.24
7.96
6.46
4.95
3.59
2.39
1.11
-0.61
-2.96
-5.79
-8.55
-10.58
-11.45
-11.18
-10.22
-9.19
-8.50
-8.24
-8.16
-7.99
-7.64
-7.26
-7.01
-6.93
-6.78
-6.22
-5.02
-3.28
-1.40
0.11
0.93
1.08
0.89
0.81
1.22
2.29
3.94
5.94
8.01
9.87
11.42
12.66
13.72
14.78
15.91
17.01
17.80
17.99
17.41
16.10
14.29
12.34
10.56
9.21
8.39
8.11
8.24
8.54
8.72
8.53
7.83
6.66
5.21
3.75
2.49
1.55
0.93
0.53
0.11
-0.52
-1.52
-2.89
-4.42
-5.78
-6.64
-6.86
-6.59
-6.20
-6.16
-6.78
-8.01
-9.48
-10.66
-11.14
-10.81
-9.86
-8.62
-7.37
-6.17
-4.92
-3.50
-1.90
-0.32
0.92
1.59
1.72
1.56
1.52
1.90
2.77
3.94
5.07
5.86
6.19
6.10
5.76
5.39
5.06
4.69
4.05
2.92
1.20
-1.01
-3.35
-5.35
-6.66
-7.09
-6.77
-6.06
-5.36
-4.97
-5.02
-5.45
-6.08
-6.75
-7.32
-7.73
-7.99
-8.14
-8.28
-8.44
-8.63
-8.75
-8.61
-8.04
-6.93
-5.34
-3.48
-1.68
-0.27
0.54
0.69
0.40
0.03
0.02
0.68
2.04
3.79
5.46
6.58
6.95
6.67
6.14
5.78
5.89
6.50
7.41
8.37
9.11
9.50
9.52
9.19
8.56
7.67
6.55
5.24
3.79
2.31
0.91
-0.30
-1.29
-2.11
-2.87
-3.71
-4.70
-5.82
-6.92
-7.83
-8.41
-8.64
-8.62
-8.51
-8.40
-8.30
-8.20
-8.07
-7.99
-8.13
-8.62
-9.42
-10.27
-10.73
-10.41
-9.15
-7.14
-4.76
-2.44
-0.47
1.12
2.44
3.66
4.90
6.16
7.39
8.54
9.55
10.41
11.15
11.82
12.49
13.21
14.02
14.86
15.59
16.08
16.24
16.09
15.72
15.19
14.50
13.55
12.26
10.64
8.85
7.17
5.81
4.84
4.06
3.14
1.79
-0.08
-2.28
-4.43
-6.16
-7.20
-7.54
-7.30
-6.68
-5.84
-4.89
-3.97
-3.25
-3.03
-3.53
-4.81
-6.71
-8.87
-10.83
-12.17
-12.64
-12.09
-10.54
-8.17
-5.34
-2.56
-0.39
0.78
0.94
0.46
-0.01
0.10
1.12
2.94
5.16
7.25
8.82
9.69
9.86
9.51
8.84
7.99
7.07
6.13
5.25
4.53
4.10
4.03
4.30
4.71
4.96
4.78
4.07
2.96
1.75
0.74
0.05
-0.43
-0.90
-1.52
-2.26
-2.89
-3.22
-3.24
-3.22
-3.59
-4.71
-6.62
-8.95
-11.03
-12.21
-12.14
-10.89
-8.97
-7.01
-5.56
-4.86
-4.81
-5.00
-4.96
-4.36
-3.13
-1.50
0.16
1.55
2.57
3.39
4.28
5.41
6.69
7.82
8.42
8.27
7.44
6.27
5.21
4.59
4.49
4.68
4.79
4.45
3.48
1.93
0.05
-1.81
-3.39
-4.53
-5.27
-5.75
-6.19
-6.78
-7.74
-9.22
-11.31
-13.94
-16.82
-19.47
-21.34
-22.01
-21.29
-19.28
-16.27
-12.67
-8.81
-4.91
-1.11
2.47
5.66
8.27
10.10
11.03
11.16
10.75
10.19
9.89
10.11
10.91
12.11
13.36
14.27
14.55
14.04
12.78
10.87
8.51
5.88
3.20
0.72
-1.32
-2.73
-3.54
-3.96
-4.33
-4.97
-6.01
-7.33
-8.63
-9.58
-9.97
-9.77
-9.13
-8.24
-7.36
-6.75
-6.62
-7.15
-8.34
-9.96
-11.52
-12.43
-12.24
-10.85
-8.51
-5.77
-3.19
-1.16
0.14
0.79
0.97
0.89
0.75
0.76
1.04
1.64
2.51
3.50
4.49
5.38
6.19
6.96
7.65
8.20
8.48
8.44
8.12
7.63
7.07
6.50
5.90
5.24
4.51
3.82
3.31
3.13
3.36
3.95
4.78
5.66
6.36
6.71
6.58
5.94
4.86
3.54
2.22
1.13
0.39
-0.01
-0.22
-0.45
-0.89
-1.63
-2.70
-4.02
-5.45
-6.77
-7.74
-8.15
-7.87
-6.91
-5.42
-3.68
-2.00
-0.65
0.25
0.79
1.22
1.82
2.81
4.17
5.67
6.99
7.83
8.10
7.95
7.70
7.62
7.87
8.36
8.89
9.25
9.32
9.07
8.55
7.83
6.97
6.00
4.92
3.81
2.74
1.84
1.27
1.12
1.33
1.73
2.06
2.06
1.57
0.59
-0.71
-2.06
-3.26
-4.20
-4.96
-5.66
-6.39
-7.16
-7.91
-8.55
-9.05
-9.40
-9.63
-9.82
-10.11
-10.72
-11.82
-13.44
-15.30
-16.89
-17.60
-16.99
-14.99
-12.01
-8.72
-5.79
-3.61
-2.21
-1.32
-0.48
0.74
2.60
5.13
8.08
10.95
13.24
14.58
14.90
14.42
13.47
12.33
11.14
9.94
8.73
7.60
6.69
6.11
5.84
5.66
5.25
4.36
2.92
1.12
-0.72
-2.24
-3.26
-3.83
-4.17
-4.63
-5.46
-6.71
-8.20
-9.56
-10.49
-10.78
-10.50
-9.89
-9.23
-8.74
-8.46
-8.38
-8.46
-8.72
-9.21
-9.87
-10.56
-11.03
-10.99
-10.28
-8.92
-7.09
-5.06
-3.11
-1.40
-0.04
0.92
1.51
1.78
1.91
2.14
2.70
3.73
5.22
6.98
8.80
10.47
11.85
12.88
13.54
13.78
13.56
12.84
11.64
10.10
8.42
6.79
5.40
4.34
3.61
3.12
2.76
2.40
1.99
1.54
1.12
0.79
0.62
0.56
0.48
0.21
-0.40
-1.38
-2.62
-3.84
-4.71
-4.96
-4.54
-3.70
-2.90
-2.69
-3.49
-5.36
-7.93
-10.46
-12.10
-12.18
-10.56
-7.59
-4.06
-0.85
1.36
2.36
2.35
1.84
1.35
1.21
1.51
2.19
3.14
4.30
5.58
6.89
8.04
8.86
9.20
9.05
8.54
7.85
7.16
6.53
5.96
5.37
4.74
4.09
3.47
2.86
2.24
1.58
0.88
0.25
-0.16
-0.21
0.12
0.73
1.34
1.63
1.33
0.36
-1.14
-2.78
-4.15
-4.89
-4.97
-4.62
-4.32
-4.60
-5.76
-7.76
-10.22
-12.51
-13.96
-14.07
-12.69
-10.06
-6.74
-3.44
-0.76
1.00
1.93
2.37
2.71
3.21
3.84
4.46
4.87
5.08
5.26
5.70
6.60
7.95
9.51
10.88
11.67
11.65
10.87
9.62
8.34
7.33
6.65
6.07
5.27
3.97
2.15
0.05
-2.02
-3.88
-5.54
-7.15
-8.80
-10.39
-11.60
-12.10
-11.81
-10.94
-9.95
-9.30
-9.24
-9.74
-10.56
-11.36
-11.94
-12.22
-12.24
-12.05
-11.62
-10.85
-9.64
-7.98
-5.98
-3.89
-1.97
-0.41
0.75
1.60
2.28
2.89
3.48
4.01
4.45
4.78
5.06
5.31
5.60
6.01
6.63
7.49
8.60
9.84
10.97
11.75
11.98
11.63
10.77
9.58
8.24
6.83
5.39
3.91
2.39
0.93
-0.32
-1.26
-1.86
-2.18
-2.40
-2.66
-3.05
-3.53
-3.98
-4.28
-4.34
-4.22
-4.02
-3.84
-3.76
-3.86
-4.22
-4.96
-6.16
-7.73
-9.33
-10.48
-10.66
-9.60
-7.40
-4.53
-1.60
0.86
2.60
3.68
4.30
4.71
5.05
5.37
5.69
6.01
6.37
6.80
7.36
8.08
8.97
10.03
11.17
12.23
13.00
13.32
13.13
12.52
11.68
10.81
10.04
9.34
8.55
7.55
6.27
4.83
3.42
2.24
1.38
0.79
0.30
-0.27
-1.06
-2.06
-3.17
-4.25
-5.18
-5.95
-6.61
-7.20
-7.76
-8.26
-8.71
-9.20
-9.81
-10.65
-11.68
-12.68
-13.31
-13.22
-12.23
-10.44
-8.16
-5.80
-3.70
-1.98
-0.53
0.80
2.13
3.39
4.40
5.01
5.25
5.34
5.63
6.33
7.34
8.35
8.92
8.76
7.94
6.78
5.71
4.99
4.64
4.42
4.10
3.55
2.84
2.12
1.51
0.97
0.32
-0.64
-2.02
-3.75
-5.60
-7.23
-8.31
-8.67
-8.37
-7.70
-7.07
-6.89
-7.45
-8.80
-10.69
-12.69
-14.28
-15.00
-14.63
-13.21
-11.02
-8.49
-6.02
-3.92
-2.36
-1.34
-0.75
-0.42
-0.15
0.19
0.65
1.24
1.92
2.70
3.60
4.65
5.85
7.10
8.21
9.01
9.43
9.47
9.28
8.99
8.70
8.42
8.14
7.84
7.49
7.06
6.53
5.81
4.86
3.66
2.29
0.90
-0.34
-1.31
-2.04
-2.68
-3.43
-4.48
-5.78
-7.14
-8.23
-8.78
-8.76
-8.37
-7.98
-7.97
-8.55
-9.64
-10.95
-12.09
-12.66
-12.41
-11.25
-9.24
-6.63
-3.77
-1.06
1.17
2.73
3.60
3.93
3.95
3.91
3.99
4.31
4.92
5.83
6.96
8.23
9.49
10.61
11.47
12.01
12.26
12.26
12.08
11.81
11.51
11.21
10.86
10.39
9.80
9.19
8.73
8.57
8.71
8.88
8.72
7.91
6.42
4.56
2.80
1.57
1.05
1.09
1.35
1.50
1.30
0.67
-0.38
-1.73
-3.26
-4.72
-5.87
-6.54
-6.75
-6.79
-7.06
-7.83
-9.09
-10.48
-11.40
-11.36
-10.18
-8.12
-5.70
-3.50
-1.89
-0.93
-0.47
-0.21
0.07
0.53
1.20
2.07
3.07
4.14
5.22
6.26
7.27
8.20
8.96
9.44
9.50
9.08
8.28
7.31
6.43
5.86
5.59
5.50
5.32
4.81
3.90
2.65
1.29
0.09
-0.76
-1.25
-1.47
-1.66
-2.00
-2.65
-3.59
-4.79
-6.15
-7.57
-8.97
-10.27
-11.36
-12.19
-12.75
-13.17
-13.65
-14.38
-15.35
-16.36
-16.94
-16.58
-14.98
-12.22
-8.75
-5.20
-2.12
0.21
1.83
2.92
3.66
4.10
4.26
4.23
4.18
4.38
4.98
5.97
7.09
8.04
8.54
8.55
8.18
7.67
7.18
6.79
6.42
5.95
5.28
4.39
3.38
2.39
1.56
0.92
0.41
-0.12
-0.81
-1.75
-2.91
-4.19
-5.45
-6.54
-7.39
-7.99
-8.36
-8.57
-8.67
-8.71
-8.80
-9.06
-9.62
-10.52
-11.69
-12.86
-13.62
-13.52
-12.30
-9.98
-6.92
-3.69
-0.83
1.27
2.54
3.16
3.41
3.60
3.85
4.21
4.63
5.10
5.71
6.61
7.88
9.42
10.90
11.85
11.87
10.84
9.02
7.01
5.46
4.80
5.03
5.83
6.63
7.01
6.79
6.06
5.07
4.04
3.13
2.39
1.84
1.45
1.10
0.59
-0.30
-1.70
-3.54
-5.52
-7.21
-8.26
-8.48
-8.02
-7.24
-6.59
-6.46
-6.99
-8.06
-9.30
-10.22
-10.38
-9.55
-7.82
-5.51
-3.04
-0.78
1.08
2.51
3.56
4.30
4.79
5.11
5.35
5.61
6.03
6.66
7.54
8.67
9.95
11.27
12.41
13.17
13.34
12.89
11.93
10.67
9.42
8.43
7.87
7.79
8.05
8.38
8.44
7.95
6.78
4.98
2.83
0.71
-1.02
-2.10
-2.48
-2.32
-1.91
-1.56
-1.54
-1.99
-2.85
-3.96
-5.06
-5.92
-6.40
-6.49
-6.36
-6.25
-6.45
-7.17
-8.39
-9.82
-10.92
-11.17
-10.23
-8.16
-5.41
-2.54
-0.10
1.64
2.66
3.10
3.16
3.03
2.89
2.89
3.18
3.85
4.87
6.07
7.23
8.11
8.55
8.49
7.99
7.21
6.38
5.70
5.36
5.37
5.64
5.91
5.92
5.39
4.22
2.47
0.35
-1.76
-3.52
-4.69
-5.28
-5.52
-5.70
-6.08
-6.75
-7.67
-8.74
-9.89
-11.12
-12.44
-13.80
-15.11
-16.26
-17.17
-17.73
-17.86
-17.41
-16.23
-14.33
-11.87
-9.14
-6.50
-4.19
-2.22
-0.47
1.23
2.89
4.39
5.53
6.16
6.31
6.17
6.04
6.18
6.73
7.62
8.61
9.38
9.65
9.32
8.48
7.34
6.14
5.01
3.99
3.07
2.24
1.58
1.16
1.01
1.06
1.11
0.93
0.34
-0.70
-2.09
-3.56
-4.84
-5.68
-5.98
-5.83
-5.47
-5.21
-5.32
-5.88
-6.79
-7.87
-8.93
-9.89
-10.65
-11.07
-10.91
-9.96
-8.17
-5.85
-3.54
-1.87
-1.14
-1.27
-1.75
-1.98
-1.54
-0.34
1.34
3.15
4.74
5.98
6.84
7.40
7.79
8.14
8.55
9.06
9.62
10.06
10.21
9.95
9.31
8.43
7.52
6.76
6.22
5.91
5.76
5.67
5.49
5.13
4.55
3.73
2.78
1.81
0.90
0.10
-0.60
-1.23
-1.74
-2.10
-2.26
-2.22
-2.06
-1.94
-2.01
-2.37
-2.99
-3.79
-4.53
-5.06
-5.31
-5.38
-5.48
-5.81
-6.41
-7.13
-7.66
-7.66
-6.95
-5.53
-3.65
-1.64
0.24
1.79
2.97
3.85
4.53
5.11
5.64
6.13
6.55
6.89
7.18
7.55
8.11
8.94
9.93
10.87
11.46
11.48
10.92
9.93
8.82
7.84
7.12
6.65
6.28
5.90
5.37
4.67
3.74
2.50
0.94
-0.85
-2.61
-4.02
-4.77
-4.79
-4.28
-3.62
-3.23
-3.38
-4.09
-5.22
-6.49
-7.68
-8.67
-9.41
-10.00
-10.60
-11.36
-12.36
-13.51
-14.59
-15.21
-15.09
-14.07
-12.22
-9.82
-7.18
-4.59
-2.17
0.07
2.17
4.17
6.02
7.60
8.79
9.55
9.91
10.02
10.10
10.37
10.97
11.81
12.67
13.20
13.11
12.22
10.63
8.58
6.41
4.42
2.73
1.35
0.20
-0.81
-1.72
-2.47
-3.07
-3.60
-4.24
-5.17
-6.48
-8.03
-9.54
-10.67
-11.19
-11.08
-10.55
-9.89
-9.43
-9.39
-9.94
-11.13
-12.91
-15.05
-17.08
-18.38
-18.33
-16.60
-13.28
-8.99
-4.61
-0.93
1.60
3.03
3.81
4.47
5.37
6.52
7.69
8.57
8.98
8.99
8.84
8.82
9.10
9.61
10.14
10.43
10.28
9.72
8.88
7.93
7.00
6.10
5.14
4.05
2.84
1.60
0.54
-0.14
-0.36
-0.20
0.07
0.07
-0.56
-1.94
-3.91
-6.02
-7.69
-8.52
-8.40
-7.61
-6.63
-5.98
-5.96
-6.65
-7.92
-9.50
-11.07
-12.29
-12.82
-12.36
-10.75
-8.09
-4.75
-1.35
1.50
3.38
4.26
4.49
4.65
5.22
6.41
8.05
9.72
10.95
11.45
11.25
10.60
9.86
9.34
9.19
9.37
9.76
10.19
10.54
10.72
10.69
10.37
9.72
8.73
7.45
6.00
4.57
3.37
2.49
1.91
1.50
1.04
0.36
-0.69
-2.09
-3.70
-5.28
-6.52
-7.22
-7.35
-7.06
-6.74
-6.74
-7.30
-8.40
-9.75
-10.93
-11.54
-11.34
-10.30
-8.57
-6.33
-3.81
-1.24
1.13
3.04
4.26
4.75
4.66
4.32
4.08
4.23
4.86
5.92
7.26
8.69
9.96
10.85
11.13
10.70
9.63
8.17
6.65
5.34
4.32
3.55
2.85
2.14
1.35
0.49
-0.51
-1.71
-3.22
-4.99
-6.82
-8.38
-9.37
-9.68
-9.53
-9.34
-9.60
-10.63
-12.42
-14.60
-16.63
-17.92
-18.06
-16.97
-14.82
-11.97
-8.84
-5.86
-3.32
-1.39
-0.11
0.61
0.98
1.24
1.61
2.26
3.26
4.60
6.15
7.74
9.14
10.13
10.54
10.38
9.75
8.86
7.94
7.12
6.41
5.74
4.95
3.96
2.76
1.42
0.05
-1.30
-2.57
-3.75
-4.80
-5.68
-6.31
-6.69
-6.84
-6.87
-6.91
-7.06
-7.42
-8.00
-8.82
-9.82
-10.91
-11.96
-12.77
-13.11
-12.78
-11.68
-9.89
-7.65
-5.33
-3.29
-1.74
-0.65
0.20
1.11
2.28
3.70
5.14
6.32
7.05
7.31
7.29
7.26
7.44
7.98
8.88
10.02
11.22
12.24
12.87
12.97
12.53
11.64
10.47
9.19
7.90
6.66
5.52
4.55
3.85
3.44
3.32
3.36
3.46
3.50
3.45
3.28
2.95
2.42
1.62
0.53
-0.78
-2.21
-3.66
-5.05
-6.36
-7.58
-8.63
-9.41
-9.83
-9.85
-9.60
-9.33
-9.34
-9.83
-10.79
-11.89
-12.61
-12.47
-11.17
-8.82
-5.81
-2.67
0.12
2.37
4.08
5.42
6.51
7.44
8.16
8.63
8.87
8.96
9.03
9.24
9.64
10.24
10.89
11.42
11.65
11.56
11.22
10.85
10.62
10.58
10.64
10.63
10.43
10.02
9.48
8.91
8.33
7.71
7.01
6.24
5.44
4.69
3.94
3.11
2.07
0.79
-0.58
-1.82
-2.71
-3.19
-3.42
-3.69
-4.29
-5.33
-6.70
-8.12
-9.34
-10.22
-10.84
-11.42
-12.19
-13.22
-14.40
-15.44
-15.99
-15.76
-14.63
-12.68
-10.11
-7.26
-4.43
-1.85
0.34
2.09
3.44
4.44
5.13
5.62
6.03
6.57
7.38
8.53
9.90
11.21
12.14
12.43
12.06
11.16
10.04
8.95
8.03
7.26
6.47
5.51
4.27
2.79
1.27
-0.05
-0.96
-1.42
-1.60
-1.87
-2.55
-3.83
-5.61
-7.50
-9.02
-9.83
-9.87
-9.42
-8.97
-8.99
-9.79
-11.34
-13.40
-15.58
-17.44
-18.62
-18.79
-17.79
-15.59
-12.43
-8.80
-5.34
-2.64
-0.98
-0.29
-0.14
-0.03
0.43
1.31
2.41
3.44
4.22
4.78
5.29
5.91
6.65
7.34
7.74
7.74
7.42
7.09
7.03
7.33
7.81
8.07
7.72
6.63
5.01
3.34
2.06
1.45
1.38
1.47
1.27
0.45
-0.99
-2.82
-4.67
-6.20
-7.27
-7.92
-8.29
-8.52
-8.69
-8.85
-9.03
-9.35
-9.94
-10.83
-11.84
-12.59
-12.61
-11.58
-9.50
-6.73
-3.77
-1.07
1.12
2.82
4.18
5.35
6.38
7.23
7.85
8.24
8.50
8.78
9.18
9.79
10.61
11.59
12.61
13.50
14.11
14.33
14.16
13.68
12.99
12.18
11.31
10.40
9.53
8.75
8.11
7.59
7.05
6.42
5.64
4.79
4.01
3.43
3.07
2.83
2.53
1.99
1.10
-0.17
-1.73
-3.46
-5.17
-6.64
-7.68
-8.14
-8.08
-7.68
-7.30
-7.28
-7.79
-8.72
-9.75
-10.36
-10.11
-8.79
-6.52
-3.73
-1.02
1.06
2.21
2.42
1.99
1.35
0.90
0.93
1.51
2.58
3.99
5.58
7.21
8.72
9.93
10.69
10.89
10.54
9.80
8.95
8.26
7.86
7.69
7.53
7.08
6.17
4.75
3.00
1.16
-0.50
-1.82
-2.77
-3.39
-3.82
-4.17
-4.56
-5.07
-5.77
-6.67
-7.70
-8.75
-9.76
-10.74
-11.77
-12.96
-14.28
-15.58
-16.56
-16.89
-16.36
-14.95
-12.81
-10.21
-7.49
-4.93
-2.76
-1.12
-0.01
0.70
1.21
1.73
2.32
2.92
3.38
3.63
3.67
3.68
3.79
4.05
4.38
4.60
4.59
4.34
3.97
3.63
3.41
3.32
3.24
3.08
2.76
2.30
1.76
1.18
0.57
-0.09
-0.81
-1.62
-2.49
-3.37
-4.16
-4.75
-5.10
-5.22
-5.22
-5.28
-5.57
-6.17
-7.08
-8.16
-9.20
-9.99
-10.31
-10.04
-9.11
-7.59
-5.68
-3.69
-1.99
-0.83
-0.28
-0.14
-0.09
0.22
0.95
2.06
3.30
4.41
5.25
5.84
6.37
6.99
7.78
8.67
9.52
10.21
10.72
11.09
11.36
11.47
11.29
10.73
9.80
8.69
7.68
6.98
6.62
6.42
6.09
5.48
4.59
3.59
2.70
2.03
1.52
1.00
0.27
-0.74
-1.98
-3.23
-4.27
-4.93
-5.14
-4.99
-4.66
-4.43
-4.55
-5.17
-6.22
-7.48
-8.62
-9.33
-9.42
-8.87
-7.74
-6.14
-4.22
-2.15
-0.13
1.64
3.01
3.99
4.65
5.13
5.51
5.83
6.09
6.37
6.77
7.46
8.45
9.53
10.38
10.68
10.29
9.35
8.19
7.17
6.50
6.20
6.15
6.16
6.11
5.88
5.43
4.69
3.63
2.27
0.69
-0.98
-2.57
-3.92
-4.93
-5.55
-5.84
-5.92
-5.97
-6.16
-6.60
-7.28
-8.08
-8.90
-9.70
-10.57
-11.66
-13.05
-14.60
-15.93
-16.59
-16.18
-14.61
-12.13
-9.25
-6.48
-4.16
-2.34
-0.91
0.27
1.22
1.92
2.28
2.37
2.40
2.66
3.36
4.51
5.89
7.17
8.09
8.55
8.66
8.61
8.54
8.39
8.01
7.19
5.89
4.29
2.69
1.43
0.62
0.13
-0.33
-1.03
-2.10
-3.43
-4.80
-6.00
-6.94
-7.65
-8.17
-8.50
-8.59
-8.42
-8.05
-7.72
-7.68
-8.10
-8.92
-9.86
-10.49
-10.48
-9.64
-8.08
-6.03
-3.79
-1.62
0.30
1.83
2.87
3.40
3.48
3.33
3.20
3.33
3.76
4.40
5.00
5.38
5.52
5.53
5.62
5.88
6.31
6.78
7.16
7.41
7.54
7.60
7.60
7.47
7.11
6.49
5.65
4.70
3.79
3.05
2.53
2.21
2.04
1.90
1.66
1.23
0.54
-0.37
-1.42
-2.46
-3.39
-4.11
-4.59
-4.85
-4.90
-4.82
-4.67
-4.60
-4.76
-5.29
-6.21
-7.34
-8.38
-8.91
-8.57
-7.21
-4.98
-2.19
0.67
3.20
5.10
6.28
6.82
6.85
6.59
6.21
5.89
5.72
5.75
5.93
6.18
6.42
6.63
6.79
6.93
7.07
7.21
7.36
7.56
7.85
8.27
8.78
9.23
9.43
9.22
8.54
7.53
6.39
5.33
4.45
3.70
2.96
2.07
0.97
-0.32
-1.69
-3.04
-4.23
-5.20
-5.95
-6.54
-7.07
-7.66
-8.40
-9.35
-10.53
-11.94
-13.53
-15.18
-16.57
-17.29
-16.92
-15.19
-12.24
-8.53
-4.73
-1.44
1.01
2.61
3.59
4.23
4.74
5.26
5.90
6.82
8.20
10.05
12.06
13.57
13.77
12.09
8.54
3.74
-1.18
-5.11
-7.34
-7.75
-6.75
-4.96
-2.91
-0.98
0.69
1.96
2.66
2.59
1.64
-0.15
-2.57
-5.29
-8.01
-10.51
-12.63
-14.34
-15.61
-16.47
-16.96
-17.08
-16.82
-16.12
-14.88
-13.05
-10.65
-7.83
-4.82
-1.89
0.75
2.97
4.73
6.00
6.76
6.98
6.68
5.98
5.08
4.28
3.82
3.85
4.40
5.37
6.52
7.57
8.31
8.55
8.26
7.54
6.57
5.62
4.91
4.62
4.70
4.92
4.95
4.41
3.13
1.19
-1.09
-3.25
-4.94
-5.99
-6.50
-6.69
-6.81
-7.06
-7.59
-8.53
-9.92
-11.70
-13.57
-15.07
-15.67
-14.96
-12.90
-9.85
-6.44
-3.38
-1.15
0.16
0.76
1.08
1.50
2.21
3.18
4.24
5.24
6.08
6.81
7.55
8.48
9.69
11.16
12.72
14.10
15.03
15.30
14.83
13.68
12.06
10.20
8.36
6.76
5.54
4.73
4.24
3.92
3.56
3.02
2.27
1.35
0.37
-0.57
-1.40
-2.06
-2.52
-2.79
-2.92
-3.03
-3.30
-3.90
-4.93
-6.32
-7.89
-9.37
-10.47
-10.91
-10.53
-9.28
-7.32
-4.94
-2.56
-0.59
0.69
1.23
1.23
0.97
0.75
0.72
0.88
1.15
1.50
1.96
2.72
3.96
5.77
8.05
10.44
12.52
13.90
14.45
14.31
13.79
13.22
12.69
12.10
11.22
9.89
8.18
6.35
4.80
3.75
3.17
2.78
2.24
1.33
0.04
-1.39
-2.66
-3.56
-4.11
-4.51
-5.01
-5.78
-6.89
-8.32
-10.01
-11.99
-14.22
-16.54
-18.59
-19.90
-20.10
-19.12
-17.25
-15.01
-12.85
-10.98
-9.34
-7.70
-5.93
-4.10
-2.41
-1.05
-0.04
0.82
1.77
3.00
4.56
6.36
8.29
10.27
12.14
13.71
14.73
15.01
14.53
13.46
12.14
10.84
9.65
8.48
7.14
5.54
3.77
2.02
0.48
-0.81
-1.96
-3.09
-4.21
-5.16
-5.77
-5.93
-5.75
-5.47
-5.37
-5.58
-6.02
-6.48
-6.77
-6.81
-6.72
-6.69
-6.87
-7.27
-7.74
-8.04
-7.98
-7.47
-6.57
-5.44
-4.28
-3.25
-2.36
-1.54
-0.64
0.42
1.64
2.87
3.96
4.77
5.29
5.68
6.10
6.71
7.54
8.53
9.49
10.23
10.61
10.59
10.28
9.83
9.36
8.95
8.53
7.99
7.23
6.29
5.33
4.56
4.11
3.95
3.86
3.63
3.13
2.48
1.88
1.55
1.52
1.67
1.73
1.50
0.89
-0.03
-1.09
-2.10
-2.96
-3.62
-4.12
-4.58
-5.12
-5.79
-6.50
-7.04
-7.16
-6.66
-5.54
-3.94
-2.16
-0.52
0.75
1.58
1.98
2.04
1.89
1.67
1.52
1.61
2.01
2.73
3.64
4.53
5.20
5.51
5.48
5.30
5.21
5.41
5.93
6.63
7.29
7.67
7.66
7.27
6.60
5.76
4.83
3.92
3.12
2.56
2.35
2.50
2.90
3.35
3.68
3.73
3.42
2.69
1.49
-0.14
-2.10
-4.16
-6.00
-7.39
-8.22
-8.64
-8.95
-9.53
-10.61
-12.20
-14.06
-15.78
-16.95
-17.25
-16.56
-14.92
-12.54
-9.71
-6.77
-4.09
-1.96
-0.56
0.10
0.21
0.05
-0.06
0.10
0.65
1.59
2.87
4.34
5.81
7.02
7.73
7.84
7.45
6.77
6.09
5.61
5.33
5.12
4.79
4.19
3.28
2.09
0.73
-0.69
-2.05
-3.31
-4.42
-5.40
-6.29
-7.12
-7.88
-8.53
-8.99
-9.24
-9.23
-8.99
-8.63
-8.32
-8.30
-8.79
-9.84
-11.21
-12.41
-12.84
-12.04
-9.97
-7.03
-3.93
-1.37
0.26
0.99
1.16
1.22
1.49
2.06
2.84
3.68
4.45
5.12
5.67
6.15
6.61
7.16
7.85
8.70
9.53
10.08
10.03
9.24
7.83
6.16
4.69
3.69
3.16
2.84
2.40
1.70
0.87
0.19
-0.02
0.35
1.12
1.89
2.19
1.74
0.52
-1.24
-3.11
-4.71
-5.79
-6.30
-6.33
-6.11
-5.82
-5.69
-5.89
-6.49
-7.46
-8.60
-9.57
-9.92
-9.34
-7.70
-5.22
-2.37
0.27
2.20
3.19
3.34
3.00
2.62
2.59
3.10
4.16
5.58
7.11
8.54
9.69
10.49
10.96
11.19
11.30
11.41
11.56
11.68
11.69
11.51
11.14
10.60
9.93
9.11
8.11
6.98
5.82
4.76
3.93
3.35
2.94
2.58
2.19
1.75
1.27
0.74
0.10
-0.76
-1.88
-3.20
-4.59
-5.86
-6.92
-7.71
-8.26
-8.59
-8.79
-8.98
-9.32
-9.93
-10.81
-11.75
-12.40
-12.41
-11.58
-9.96
-7.83
-5.59
-3.56
-1.92
-0.65
0.38
1.32
2.30
3.39
4.65
6.10
7.74
9.48
11.11
12.34
12.92
12.71
11.82
10.53
9.21
8.17
7.47
6.99
6.45
5.59
4.29
2.56
0.53
-1.67
-3.88
-5.95
-7.74
-9.15
-10.14
-10.73
-11.04
-11.22
-11.40
-11.69
-12.13
-12.76
-13.56
-14.50
-15.48
-16.37
-16.91
-16.82
-15.89
-14.03
-11.34
-8.15
-4.89
-2.00
0.20
1.61
2.32
2.57
2.58
2.51
2.41
2.31
2.27
2.42
2.90
3.83
5.15
6.65
8.03
8.97
9.28
8.96
8.19
7.19
6.18
5.28
4.53
3.84
3.18
2.48
1.77
1.10
0.50
-0.10
-0.82
-1.85
-3.25
-4.94
-6.63
-7.96
-8.64
-8.58
-7.99
-7.28
-6.91
-7.22
-8.23
-9.66
-10.98
-11.64
-11.23
-9.70
-7.26
-4.42
-1.71
0.36
1.54
1.78
1.31
0.50
-0.21
-0.47
-0.13
0.76
2.03
3.51
5.13
6.83
8.56
10.11
11.21
11.62
11.37
10.77
10.32
10.43
11.13
12.09
12.73
12.57
11.46
9.63
7.58
5.82
4.68
4.21
4.26
4.48
4.51
4.04
2.92
1.23
-0.75
-2.62
-4.01
-4.66
-4.61
-4.10
-3.54
-3.36
-3.89
-5.21
-7.06
-8.97
-10.36
-10.76
-9.97
-8.11
-5.51
-2.59
0.25
2.68
4.46
5.48
5.75
5.45
4.84
4.24
3.89
3.94
4.39
5.17
6.15
7.19
8.12
8.80
9.11
9.09
8.84
8.54
8.28
8.05
7.71
7.14
6.29
5.23
4.18
3.38
2.96
2.88
2.91
2.72
2.04
0.79
-0.88
-2.62
-4.06
-4.99
-5.43
-5.60
-5.81
-6.36
-7.41
-9.04
-11.14
-13.50
-15.78
-17.47
-18.16
-17.57
-15.72
-12.97
-9.83
-6.85
-4.40
-2.61
-1.41
-0.60
0.04
0.71
1.48
2.36
3.24
4.02
4.63
5.08
5.47
5.88
6.31
6.64
6.70
6.37
5.67
4.75
3.82
3.05
2.50
2.11
1.81
1.49
1.08
0.44
-0.60
-2.15
-4.17
-6.41
-8.50
-10.02
-10.77
-10.81
-10.38
-9.74
-9.11
-8.57
-8.14
-7.94
-8.09
-8.70
-9.69
-10.68
-11.14
-10.55
-8.68
-5.76
-2.39
0.66
2.80
3.79
3.80
3.31
2.85
2.78
3.21
4.03
5.05
6.14
7.25
8.38
9.48
10.44
11.06
11.19
10.84
10.27
9.81
9.71
9.99
10.40
10.55
10.12
9.04
7.51
5.85
4.34
3.11
2.14
1.35
0.71
0.25
-0.02
-0.14
-0.25
-0.54
-1.15
-2.08
-3.20
-4.32
-5.28
-6.01
-6.59
-7.11
-7.65
-8.23
-8.81
-9.40
-10.06
-10.90
-11.98
-13.16
-14.12
-14.46
-13.79
-12.02
-9.31
-6.10
-2.86
0.04
2.41
4.26
5.63
6.60
7.22
7.52
7.63
7.72
7.98
8.51
9.37
10.49
11.76
13.03
14.17
15.02
15.48
15.48
15.07
14.39
13.54
12.58
11.43
10.07
8.55
7.08
5.92
5.15
4.64
4.08
3.19
1.90
0.41
-0.90
-1.77
-2.12
-2.08
-1.88
-1.77
-1.87
-2.27
-3.02
-4.10
-5.43
-6.77
-7.93
-8.73
-9.20
-9.45
-9.69
-10.02
-10.53
-11.20
-11.96
-12.70
-13.22
-13.31
-12.72
-11.33
-9.18
-6.46
-3.50
-0.61
1.96
4.03
5.55
6.54
7.13
7.50
7.85
8.37
9.21
10.40
11.85
13.27
14.35
14.74
14.32
13.21
11.73
10.32
9.25
8.54
8.03
7.42
6.52
5.28
3.80
2.20
0.54
-1.12
-2.72
-4.07
-5.02
-5.44
-5.45
-5.36
-5.52
-6.19
-7.38
-8.86
-10.28
-11.39
-12.12
-12.59
-13.03
-13.65
-14.60
-15.91
-17.46
-18.99
-20.07
-20.30
-19.37
-17.26
-14.26
-10.82
-7.44
-4.47
-2.06
-0.25
1.03
1.84
2.35
2.74
3.23
4.01
5.11
6.39
7.59
8.51
9.07
9.35
9.50
9.65
9.82
9.95
9.95
9.70
9.14
8.24
7.01
5.56
4.01
2.55
1.28
0.29
-0.42
-0.94
-1.36
-1.76
-2.23
-2.78
-3.37
-3.92
-4.35
-4.65
-4.90
-5.24
-5.77
-6.49
-7.25
-7.85
-8.12
-8.11
-8.03
-8.17
-8.72
-9.61
-10.53
-11.03
-10.70
-9.39
-7.18
-4.42
-1.56
0.94
2.76
3.79
4.11
3.96
3.65
3.46
3.60
4.12
4.96
5.98
7.01
7.92
8.67
9.28
9.83
10.37
10.89
11.28
11.44
11.32
10.94
10.45
9.99
9.64
9.40
9.16
8.82
8.28
7.56
6.75
6.00
5.41
5.01
4.73
4.44
4.03
3.44
2.66
1.72
0.67
-0.47
-1.68
-2.95
-4.17
-5.22
-5.99
-6.40
-6.52
-6.49
-6.57
-6.96
-7.78
-9.01
-10.37
-11.48
-11.90
-11.34
-9.76
-7.37
-4.62
-1.97
0.23
1.86
3.03
3.96
4.80
5.59
6.23
6.64
6.80
6.85
7.00
7.40
8.07
8.88
9.61
10.05
10.09
9.78
9.22
8.58
7.97
7.40
6.83
6.09
5.09
3.78
2.31
0.93
-0.12
-0.74
-1.06
-1.37
-1.95
-2.96
-4.35
-5.95
-7.53
-8.91
-10.01
-10.83
-11.42
-11.92
-12.50
-13.42
-14.82
-16.68
-18.70
-20.38
-21.21
-20.81
-19.09
-16.25
-12.67
-8.79
-5.00
-1.63
1.14
3.16
4.41
4.96
4.94
4.60
4.22
4.08
4.37
5.14
6.25
7.42
8.32
8.73
8.62
8.19
7.67
7.25
6.93
6.55
5.90
4.84
3.40
1.73
0.09
-1.31
-2.37
-3.11
-3.67
-4.22
-4.91
-5.74
-6.62
-7.33
-7.71
-7.71
-7.48
-7.30
-7.45
-8.05
-8.94
-9.76
-10.10
-9.64
-8.35
-6.43
-4.20
-1.97
0.06
1.78
3.17
4.23
4.94
5.31
5.35
5.13
4.72
4.24
3.84
3.70
3.97
4.72
5.86
7.13
8.25
9.02
9.42
9.56
9.59
9.54
9.34
8.81
7.88
6.64
5.31
4.15
3.32
2.83
2.55
2.28
1.87
1.25
0.45
-0.39
-1.13
-1.64
-1.87
-1.88
-1.87
-2.12
-2.86
-4.22
-6.10
-8.22
-10.19
-11.57
-12.05
-11.47
-9.87
-7.48
-4.66
-1.82
0.65
2.46
3.51
3.86
3.77
3.53
3.40
3.51
3.89
4.49
5.29
6.28
7.47
8.81
10.14
11.19
11.72
11.59
10.86
9.79
8.70
7.78
7.08
6.42
5.63
4.62
3.41
2.17
1.02
-0.07
-1.24
-2.62
-4.15
-5.54
-6.46
-6.72
-6.41
-5.94
-5.77
-6.20
-7.21
-8.55
-9.87
-10.99
-11.84
-12.48
-12.86
-12.81
-12.14
-10.69
-8.53
-5.91
-3.23
-0.82
1.17
2.70
3.93
4.94
5.78
6.40
6.79
7.00
7.16
7.48
8.09
9.00
10.02
10.89
11.33
11.18
10.41
9.13
7.53
5.80
4.08
2.53
1.20
0.05
-1.07
-2.36
-3.96
-5.85
-7.85
-9.66
-10.97
-11.61
-11.57
-11.05
-10.28
-9.55
-9.09
-9.09
-9.66
-10.75
-12.11
-13.22
-13.51
-12.59
-10.47
-7.61
-4.74
-2.52
-1.27
-0.87
-0.89
-0.85
-0.43
0.48
1.75
3.26
4.83
6.35
7.68
8.72
9.40
9.69
9.71
9.57
9.40
9.25
9.11
8.95
8.70
8.35
7.86
7.24
6.48
5.58
4.55
3.46
2.46
1.68
1.20
0.98
0.84
0.58
0.01
-0.88
-1.99
-3.19
-4.38
-5.56
-6.73
-7.83
-8.70
-9.18
-9.25
-9.05
-8.91
-9.16
-9.97
-11.24
-12.56
-13.48
-13.51
-12.42
-10.21
-7.15
-3.69
-0.32
2.49
4.51
5.75
6.43
6.91
7.47
8.23
9.05
9.68
9.85
9.52
8.89
8.33
8.22
8.80
9.97
11.45
12.81
13.69
13.97
13.72
13.18
12.56
11.97
11.35
10.53
9.40
7.99
6.51
5.25
4.40
3.88
3.39
2.55
1.19
-0.54
-2.16
-3.16
-3.26
-2.63
-1.74
-1.20
-1.36
-2.17
-3.31
-4.34
-5.03
-5.40
-5.67
-6.09
-6.88
-8.03
-9.40
-10.72
-11.70
-12.06
-11.63
-10.38
-8.44
-6.07
-3.59
-1.33
0.55
1.99
3.12
4.15
5.29
6.62
8.13
9.65
11.01
12.02
12.63
12.88
12.84
12.53
11.91
10.95
9.68
8.31
7.12
6.35
6.04
5.98
5.76
4.94
3.29
0.91
-1.80
-4.29
-6.09
-7.03
-7.23
-7.08
-6.99
-7.29
-8.11
-9.38
-10.88
-12.31
-13.39
-13.97
-14.04
-13.82
-13.65
-13.85
-14.62
-15.88
-17.29
-18.35
-18.59
-17.71
-15.67
-12.66
-9.06
-5.32
-1.84
1.04
3.17
4.50
5.16
5.35
5.35
5.39
5.64
6.17
6.95
7.90
8.90
9.81
10.51
10.88
10.85
10.38
9.51
8.35
7.08
5.90
4.97
4.32
3.81
3.22
2.34
1.09
-0.38
-1.75
-2.74
-3.22
-3.38
-3.60
-4.22
-5.36
-6.87
-8.35
-9.43
-9.97
-10.03
-9.86
-9.74
-9.82
-10.17
-10.76
-11.61
-12.66
-13.80
-14.70
-14.88
-13.90
-11.54
-8.00
-3.89
0.02
3.03
4.83
5.59
5.83
6.20
7.13
8.68
10.59
12.39
13.72
14.36
14.36
13.91
13.23
12.58
12.15
12.06
12.31
12.77
13.11
13.01
12.35
11.25
10.12
9.33
9.07
9.12
9.04
8.36
6.88
4.74
2.31
-0.02
-1.99
-3.48
-4.45
-4.86
-4.73
-4.19
-3.51
-3.10
-3.23
-3.99
-5.24
-6.68
-8.05
-9.16
-10.03
-10.72
-11.31
-11.79
-12.05
-11.87
-11.01
-9.40
-7.12
-4.48
-1.86
0.43
2.26
3.70
4.90
5.96
6.93
7.73
8.33
8.71
8.99
9.31
9.81
10.56
11.53
12.52
13.25
13.40
12.78
11.42
9.60
7.70
6.07
4.80
3.75
2.71
1.56
0.33
-0.77
-1.58
-2.10
-2.51
-3.06
-3.96
-5.24
-6.76
-8.23
-9.42
-10.19
-10.59
-10.78
-10.96
-11.36
-12.10
-13.22
-14.62
-16.06
-17.15
-17.46
-16.67
-14.75
-11.96
-8.79
-5.78
-3.25
-1.28
0.28
1.66
2.94
4.04
4.75
4.94
4.64
4.13
3.78
3.89
4.52
5.44
6.26
6.61
6.35
5.59
4.64
3.78
3.15
2.63
1.99
1.04
-0.23
-1.69
-3.16
-4.50
-5.68
-6.77
-7.80
-8.75
-9.52
-10.00
-10.14
-9.99
-9.70
-9.46
-9.46
-9.83
-10.56
-11.47
-12.20
-12.40
-11.75
-10.17
-7.81
-5.00
-2.11
0.57
2.90
4.78
6.17
7.03
7.38
7.29
6.94
6.56
6.36
6.50
6.97
7.65
8.36
8.96
9.35
9.54
9.57
9.44
9.07
8.39
7.36
6.10
4.87
3.99
3.65
3.81
4.23
4.53
4.47
3.97
3.19
2.33
1.50
0.66
-0.29
-1.41
-2.61
-3.67
-4.32
-4.47
-4.27
-4.14
-4.48
-5.46
-6.93
-8.33
-9.03
-8.59
-6.93
-4.37
-1.42
1.41
3.79
5.58
6.78
7.40
7.51
7.19
6.61
6.02
5.68
5.72
6.16
6.83
7.52
8.05
8.33
8.40
8.37
8.37
8.46
8.61
8.66
8.44
7.83
6.81
5.45
3.92
2.39
1.00
-0.22
-1.28
-2.22
-3.06
-3.80
-4.43
-4.92
-5.24
-5.39
-5.41
-5.43
-5.64
-6.26
-7.45
-9.24
-11.44
-13.68
-15.50
-16.49
-16.34
-14.96
-12.48
-9.25
-5.76
-2.55
-0.09
1.40
2.04
2.15
2.13
2.26
2.65
3.29
4.16
5.25
6.50
7.78
8.81
9.31
9.08
8.21
6.99
5.81
4.97
4.58
4.50
4.45
4.13
3.33
1.96
0.10
-2.07
-4.32
-6.46
-8.40
-10.09
-11.50
-12.58
-13.25
-13.49
-13.39
-13.17
-13.07
-13.23
-13.58
-13.80
-13.51
-12.39
-10.39
-7.70
-4.76
-1.98
0.32
2.03
3.24
4.16
4.98
5.82
6.64
7.38
7.95
8.35
8.65
8.96
9.36
9.82
10.23
10.42
10.28
9.80
9.13
8.49
8.03
7.78
7.62
7.36
6.84
5.98
4.83
3.48
2.08
0.74
-0.45
-1.47
-2.32
-3.06
-3.74
-4.41
-5.07
-5.74
-6.42
-7.10
-7.78
-8.49
-9.22
-9.99
-10.76
-11.46
-11.88
-11.75
-10.71
-8.57
-5.43
-1.72
1.91
4.85
6.78
7.77
8.19
8.45
8.81
9.32
9.85
10.19
10.22
9.91
9.37
8.79
8.35
8.26
8.63
9.44
10.49
11.47
12.05
12.01
11.35
10.23
8.89
7.53
6.27
5.07
3.88
2.64
1.38
0.18
-0.83
-1.63
-2.30
-3.01
-3.89
-4.97
-6.09
-6.98
-7.45
-7.48
-7.30
-7.31
-7.85
-9.07
-10.85
-12.81
-14.45
-15.31
-15.04
-13.54
-10.93
-7.49
-3.64
0.18
3.58
6.28
8.15
9.17
9.42
9.11
8.48
7.82
7.39
7.37
7.79
8.56
9.49
10.35
10.89
11.02
10.72
10.18
9.60
9.15
8.84
8.48
7.77
6.43
4.36
1.65
-1.39
-4.40
-7.10
-9.27
-10.86
-11.91
-12.54
-12.89
-13.14
-13.41
-13.72
-14.02
-14.26
-14.50
-14.88
-15.60
-16.72
-18.04
-19.06
-19.19
-18.01
-15.45
-11.89
-7.98
-4.41
-1.65
0.14
1.10
1.54
1.81
2.20
2.83
3.70
4.75
5.91
7.14
8.46
9.83
11.13
12.15
12.72
12.80
12.52
12.13
11.78
11.47
11.00
10.17
8.91
7.38
5.85
4.53
3.44
2.41
1.26
-0.13
-1.64
-3.08
-4.26
-5.13
-5.83
-6.51
-7.29
-8.18
-9.09
-9.89
-10.51
-10.94
-11.26
-11.58
-12.01
-12.62
-13.36
-14.05
-14.42
-14.16
-13.00
-10.89
-8.01
-4.69
-1.35
1.64
4.04
5.78
6.96
7.76
8.33
8.85
9.41
10.06
10.81
11.62
12.40
13.06
13.52
13.79
13.94
14.07
14.19
14.24
14.09
13.66
12.98
12.17
11.34
10.53
9.59
8.37
6.86
5.25
3.88
3.01
2.64
2.56
2.45
2.10
1.47
0.70
-0.12
-0.97
-1.94
-3.07
-4.34
-5.64
-6.83
-7.81
-8.48
-8.82
-8.88
-8.81
-8.91
-9.45
-10.60
-12.17
-13.67
-14.45
-14.03
-12.28
-9.51
-6.32
-3.32
-0.95
0.63
1.50
1.87
1.98
1.99
2.04
2.27
2.84
3.94
5.72
8.13
10.86
13.33
14.94
15.29
14.40
12.80
11.18
10.17
9.97
10.28
10.52
10.09
8.78
6.79
4.61
2.72
1.30
0.21
-0.82
-1.98
-3.17
-4.10
-4.56
-4.62
-4.67
-5.22
-6.56
-8.56
-10.72
-12.46
-13.49
-13.99
-14.45
-15.38
-16.88
-18.59
-19.80
-19.83
-18.38
-15.63
-12.16
-8.63
-5.54
-3.09
-1.29
-0.08
0.58
0.73
0.49
0.18
0.20
0.95
2.57
4.91
7.52
9.83
11.38
11.97
11.68
10.76
9.54
8.30
7.18
6.21
5.40
4.74
4.27
3.97
3.74
3.39
2.73
1.66
0.25
-1.33
-2.85
-4.18
-5.26
-6.17
-6.94
-7.57
-8.02
-8.27
-8.45
-8.76
-9.42
-10.53
-11.97
-13.45
-14.64
-15.24
-15.10
-14.12
-12.29
-9.72
-6.61
-3.28
-0.13
2.44
4.25
5.32
5.86
6.21
6.59
7.12
7.75
8.37
8.91
9.37
9.84
10.42
11.14
12.00
12.85
13.49
13.71
13.36
12.44
11.13
9.69
8.36
7.30
6.54
6.00
5.55
5.10
4.62
4.12
3.52
2.75
1.65
0.21
-1.43
-2.91
-3.82
-3.95
-3.35
-2.38
-1.51
-1.16
-1.51
-2.51
-3.94
-5.60
-7.31
-8.93
-10.33
-11.25
-11.44
-10.73
-9.10
-6.72
-3.89
-0.97
1.75
4.09
5.96
7.31
8.10
8.31
7.97
7.29
6.58
6.23
6.48
7.33
8.45
9.39
9.79
9.56
8.88
8.07
7.41
6.96
6.58
6.09
5.34
4.38
3.36
2.41
1.64
1.07
0.65
0.31
-0.05
-0.52
-1.23
-2.21
-3.35
-4.42
-5.16
-5.41
-5.30
-5.18
-5.49
-6.61
-8.63
-11.30
-14.11
-16.43
-17.68
-17.55
-16.00
-13.30
-9.88
-6.22
-2.78
0.06
2.07
3.17
3.54
3.50
3.49
3.88
4.82
6.21
7.80
9.27
10.44
11.21
11.56
11.50
11.06
10.30
9.38
8.47
7.68
6.93
6.07
4.91
3.36
1.47
-0.55
-2.44
-4.00
-5.15
-5.95
-6.61
-7.38
-8.49
-9.91
-11.43
-12.76
-13.65
-14.17
-14.59
-15.26
-16.26
-17.30
-17.85
-17.34
-15.55
-12.68
-9.25
-5.88
-3.07
-1.10
-0.05
0.16
-0.24
-0.86
-1.23
-0.90
0.27
2.11
4.17
5.95
7.18
7.88
8.36
8.91
9.63
10.37
10.82
10.69
9.95
8.79
7.54
6.43
5.48
4.51
3.27
1.75
0.08
-1.37
-2.36
-2.91
-3.31
-3.96
-5.10
-6.70
-8.42
-9.88
-10.85
-11.30
-11.44
-11.57
-11.92
-12.66
-13.74
-14.94
-15.81
-15.85
-14.66
-12.16
-8.64
-4.68
-0.96
2.01
4.02
5.19
5.84
6.40
7.14
8.17
9.37
10.47
11.22
11.52
11.47
11.33
11.35
11.65
12.16
12.72
13.20
13.53
13.75
13.88
13.85
13.54
12.88
11.92
10.86
9.84
8.93
8.03
7.00
5.84
4.71
3.84
3.34
3.10
2.75
1.98
0.67
-1.03
-2.76
-4.26
-5.42
-6.36
-7.19
-7.99
-8.69
-9.31
-9.99
-10.99
-12.44
-14.22
-15.83
-16.59
-15.93
-13.74
-10.36
-6.47
-2.77
0.24
2.37
3.71
4.51
4.96
5.28
5.57
5.94
6.49
7.25
8.22
9.32
10.47
11.51
12.27
12.60
12.40
11.77
10.89
10.08
9.54
9.24
8.95
8.37
7.36
5.95
4.46
3.20
2.30
1.61
0.86
-0.18
-1.50
-2.91
-4.18
-5.20
-6.09
-6.97
-7.88
-8.69
-9.17
-9.24
-9.07
-9.04
-9.55
-10.82
-12.77
-15.09
-17.45
-19.53
-21.05
-21.71
-21.17
-19.18
-15.81
-11.49
-7.01
-3.16
-0.46
1.07
1.84
2.37
2.99
3.74
4.45
4.99
5.48
6.18
7.32
8.81
10.28
11.22
11.37
10.83
10.03
9.40
9.08
8.84
8.26
7.08
5.36
3.48
1.86
0.71
-0.06
-0.73
-1.51
-2.36
-3.03
-3.29
-3.11
-2.75
-2.68
-3.22
-4.43
-5.97
-7.36
-8.12
-8.07
-7.36
-6.35
-5.47
-5.09
-5.40
-6.48
-8.26
-10.48
-12.64
-14.11
-14.30
-12.90
-10.07
-6.41
-2.71
0.36
2.46
3.73
4.53
5.26
6.13
7.08
7.89
8.40
8.63
8.74
9.02
9.64
10.52
11.40
12.00
12.17
12.01
11.79
11.77
11.93
12.04
11.73
10.84
9.45
7.89
6.48
5.38
4.52
3.75
2.98
2.29
1.84
1.68
1.73
1.73
1.43
0.76
-0.18
-1.26
-2.37
-3.56
-4.90
-6.42
-7.96
-9.26
-10.03
-10.22
-10.01
-9.77
-9.84
-10.27
-10.73
-10.62
-9.36
-6.71
-3.03
0.91
4.21
6.27
7.01
6.84
6.34
5.93
5.72
5.60
5.45
5.35
5.56
6.30
7.61
9.13
10.38
10.93
10.67
9.87
8.99
8.42
8.26
8.31
8.19
7.56
6.29
4.46
2.27
-0.07
-2.36
-4.41
-6.06
-7.15
-7.62
-7.58
-7.35
-7.28
-7.65
-8.53
-9.86
-11.41
-13.02
-14.60
-16.11
-17.58
-19.02
-20.38
-21.48
-21.99
-21.56
-19.94
-17.09
-13.29
-9.08
-5.09
-1.84
0.37
1.51
1.80
1.63
1.42
1.54
2.20
3.35
4.76
6.10
7.17
7.99
8.74
9.58
10.50
11.24
11.50
11.11
10.16
8.94
7.70
6.55
5.37
4.00
2.38
0.62
-1.02
-2.37
-3.37
-4.12
-4.79
-5.49
-6.25
-7.05
-7.89
-8.73
-9.58
-10.40
-11.17
-11.90
-12.63
-13.30
-13.73
-13.54
-12.38
-10.07
-6.81
-3.15
0.19
2.67
4.08
4.67
4.85
5.06
5.49
6.13
6.82
7.44
7.92
8.27
8.49
8.61
8.67
8.72
8.82
9.04
9.39
9.86
10.38
10.87
11.17
11.15
10.57
9.30
7.35
4.95
2.61
0.87
0.08
0.18
0.70
0.96
0.42
-1.03
-3.05
-5.01
-6.38
-6.97
-6.99
-6.97
-7.36
-8.33
-9.72
-11.16
-12.23
-12.65
-12.29
-11.13
-9.23
-6.70
-3.75
-0.65
2.29
4.79
6.67
7.93
8.72
9.26
9.75
10.20
10.50
10.45
9.93
9.03
8.11
7.62
7.94
9.10
10.72
12.15
12.76
12.26
10.88
9.19
7.82
7.08
6.84
6.61
5.92
4.60
2.89
1.34
0.39
0.10
0.12
-0.04
-0.75
-2.01
-3.48
-4.74
-5.53
-5.86
-6.04
-6.47
-7.43
-8.99
-11.00
-13.16
-15.08
-16.41
-16.88
-16.39
-14.97
-12.82
-10.17
-7.26
-4.32
-1.59
0.76
2.61
3.99
5.05
5.98
6.96
8.02
9.11
10.11
10.92
11.46
11.71
11.66
11.30
10.69
9.91
9.11
8.36
7.69
6.99
6.14
5.04
3.66
2.02
0.19
-1.79
-3.89
-6.06
-8.19
-10.09
-11.54
-12.36
-12.49
-12.06
-11.32
-10.65
-10.44
-10.99
-12.48
-14.82
-17.65
-20.38
-22.24
-22.54
-20.88
-17.38
-12.66
-7.67
-3.30
-0.03
2.11
3.46
4.42
5.31
6.21
7.12
8.00
8.83
9.62
10.37
11.03
11.57
12.00
12.35
12.64
12.88
12.97
12.78
12.20
11.22
9.88
8.28
6.54
4.80
3.16
1.70
0.46
-0.58
-1.47
-2.30
-3.16
-4.12
-5.22
-6.42
-7.65
-8.78
-9.71
-10.34
-10.74
-11.04
-11.50
-12.29
-13.48
-14.91
-16.17
-16.72
-16.06
-13.98
-10.63
-6.50
-2.31
1.33
4.02
5.72
6.67
7.27
7.90
8.74
9.81
10.91
11.82
12.34
12.42
12.15
11.75
11.41
11.27
11.36
11.57
11.75
11.76
11.56
11.20
10.83
10.58
10.43
10.24
9.77
8.81
7.37
5.67
4.03
2.71
1.72
0.88
-0.11
-1.38
-2.88
-4.41
-5.73
-6.73
-7.42
-7.91
-8.28
-8.57
-8.82
-9.15
-9.72
-10.65
-11.85
-12.97
-13.53
-13.16
-11.70
-9.31
-6.33
-3.16
-0.20
2.30
4.20
5.49
6.33
6.97
7.65
8.48
9.33
10.02
10.40
10.51
10.58
10.83
11.30
11.76
11.90
11.50
10.68
9.75
9.05
8.65
8.27
7.46
5.90
3.71
1.39
-0.42
-1.36
-1.48
-1.29
-1.40
-2.21
-3.72
-5.60
-7.35
-8.58
-9.16
-9.19
-8.94
-8.79
-9.07
-9.99
-11.56
-13.54
-15.45
-16.78
-17.07
-16.12
-14.02
-11.06
-7.62
-4.09
-0.76
2.07
4.16
5.28
5.38
4.61
3.37
2.20
1.62
1.94
3.12
4.86
6.71
8.25
9.19
9.48
9.24
8.66
7.99
7.41
7.02
6.74
6.50
6.12
5.52
4.64
3.44
1.90
-0.01
-2.23
-4.69
-7.22
-9.65
-11.83
-13.69
-15.24
-16.42
-17.16
-17.38
-17.08
-16.39
-15.58
-14.91
-14.51
-14.30
-13.98
-13.19
-11.68
-9.41
-6.60
-3.67
-0.97
1.25
2.98
4.38
5.63
6.81
7.89
8.73
9.21
9.31
9.17
9.05
9.20
9.71
10.48
11.26
11.76
11.79
11.35
10.61
9.86
9.35
9.20
9.29
9.34
8.95
7.87
6.11
3.96
1.87
0.21
-0.90
-1.70
-2.57
-3.84
-5.51
-7.33
-8.90
-9.99
-10.68
-11.29
-12.21
-13.53
-15.08
-16.53
-17.67
-18.49
-19.18
-19.84
-20.24
-19.91
-18.29
-15.22
-11.00
-6.46
-2.49
0.33
1.95
2.78
3.42
4.36
5.74
7.35
8.77
9.57
9.54
8.87
8.09
7.88
8.75
10.70
13.29
15.70
17.28
17.77
17.42
16.76
16.21
15.88
15.55
14.93
13.84
12.37
10.78
9.35
8.30
7.66
7.31
7.06
6.68
5.93
4.69
2.96
0.85
-1.41
-3.63
-5.61
-7.25
-8.49
-9.29
-9.70
-9.81
-9.82
-9.91
-10.33
-11.24
-12.65
-14.33
-15.86
-16.62
-16.04
-13.84
-10.20
-5.74
-1.33
2.32
4.87
6.46
7.47
8.26
8.93
9.39
9.46
9.11
8.51
8.01
7.94
8.42
9.32
10.24
10.80
10.75
10.12
9.17
8.26
7.68
7.52
7.64
7.74
7.51
6.76
5.44
3.70
1.69
-0.35
-2.20
-3.69
-4.67
-5.11
-5.06
-4.79
-4.60
-4.86
-5.77
-7.32
-9.20
-11.02
-12.51
-13.65
-14.71
-15.98
-17.51
-18.95
-19.68
-19.15
-17.19
-14.14
-10.69
-7.51
-4.92
-2.86
-1.03
0.78
2.55
4.08
5.14
5.71
5.96
6.19
6.69
7.58
8.77
10.04
11.07
11.55
11.32
10.34
8.73
6.79
4.85
3.15
1.81
0.77
-0.09
-0.91
-1.78
-2.68
-3.64
-4.68
-5.85
-7.13
-8.39
-9.39
-9.88
-9.75
-9.16
-8.58
-8.56
-9.38
-10.86
-12.38
-13.16
-12.62
-10.73
-7.97
-5.13
-2.90
-1.55
-0.89
-0.49
0.13
1.10
2.31
3.48
4.39
4.99
5.44
5.88
6.37
6.86
7.25
7.49
7.68
7.97
8.42
8.90
9.12
8.80
7.81
6.29
4.56
2.92
1.60
0.63
0.00
-0.36
-0.57
-0.75
-1.01
-1.40
-1.90
-2.40
-2.87
-3.36
-3.98
-4.84
-5.84
-6.72
-7.24
-7.32
-7.20
-7.21
-7.57
-8.08
-8.18
-7.22
-4.94
-1.58
2.19
5.55
7.95
9.24
9.65
9.57
9.32
9.06
8.82
8.55
8.17
7.70
7.25
7.02
7.26
8.06
9.27
10.48
11.23
11.19
10.35
9.05
7.79
6.85
6.23
5.76
5.15
4.33
3.35
2.38
1.47
0.58
-0.47
-1.76
-3.20
-4.57
-5.61
-6.15
-6.26
-6.14
-6.09
-6.33
-7.00
-8.08
-9.49
-11.04
-12.49
-13.51
-13.74
-12.95
-11.02
-8.11
-4.60
-1.05
2.04
4.29
5.52
5.85
5.53
4.96
4.49
4.38
4.68
5.29
5.95
6.43
6.62
6.55
6.34
6.09
5.78
5.35
4.73
3.95
3.12
2.31
1.55
0.85
0.11
-0.76
-1.81
-3.13
-4.72
-6.51
-8.30
-9.80
-10.64
-10.68
-10.04
-9.13
-8.47
-8.48
-9.29
-10.77
-12.57
-14.25
-15.40
-15.66
-14.86
-13.05
-10.44
-7.46
-4.55
-2.09
-0.31
0.73
1.22
1.38
1.49
1.79
2.41
3.35
4.52
5.77
6.95
7.99
8.92
9.75
10.44
10.89
10.94
10.53
9.76
8.81
7.96
7.34
6.91
6.49
5.81
4.72
3.31
1.84
0.66
-0.04
-0.37
-0.68
-1.38
-2.76
-4.76
-7.04
-9.13
-10.63
-11.36
-11.39
-11.07
-10.79
-10.95
-11.72
-12.96
-14.22
-14.94
-14.63
-13.07
-10.44
-7.16
-3.78
-0.74
1.74
3.63
5.01
5.98
6.55
6.77
6.68
6.37
5.99
5.67
5.58
5.84
6.59
7.84
9.44
11.14
12.63
13.68
14.28
14.47
14.37
14.00
13.36
12.43
11.31
10.20
9.31
8.76
8.42
8.08
7.54
6.75
5.87
5.04
4.31
3.53
2.44
0.91
-0.99
-2.94
-4.58
-5.67
-6.16
-6.22
-6.14
-6.18
-6.61
-7.58
-9.10
-11.01
-12.88
-14.18
-14.36
-13.10
-10.48
-6.91
-3.06
0.41
3.05
4.69
5.47
5.64
5.43
5.03
4.53
4.05
3.84
4.18
5.26
7.02
9.10
10.92
11.95
11.90
10.88
9.36
7.87
6.83
6.32
6.21
6.25
6.22
6.03
5.59
4.86
3.83
2.54
1.14
-0.18
-1.30
-2.19
-2.97
-3.78
-4.73
-5.78
-6.81
-7.70
-8.43
-9.06
-9.70
-10.40
-11.15
-11.98
-12.94
-14.14
-15.62
-17.21
-18.45
-18.79
-17.74
-15.26
-11.73
-7.87
-4.39
-1.68
0.20
1.51
2.56
3.51
4.41
5.21
5.89
6.48
7.10
7.81
8.63
9.44
10.11
10.50
10.55
10.21
9.52
8.59
7.48
6.28
5.02
3.77
2.60
1.65
1.03
0.78
0.80
0.87
0.69
0.11
-0.87
-2.10
-3.40
-4.62
-5.78
-6.93
-8.11
-9.21
-10.04
-10.41
-10.29
-9.90
-9.60
-9.75
-10.45
-11.48
-12.32
-12.48
-11.61
-9.75
-7.25
-4.55
-2.05
0.13
1.96
3.51
4.77
5.64
6.00
5.82
5.26
4.62
4.25
4.41
5.18
6.45
7.97
9.50
10.70
11.37
11.39
10.81
9.88
8.90
8.15
7.72
7.48
7.21
6.76
6.05
5.24
4.50
3.95
3.52
3.05
2.31
1.20
-0.24
-1.80
-3.22
-4.31
-4.96
-5.22
-5.23
-5.17
-5.23
-5.50
-6.04
-6.80
-7.71
-8.66
-9.46
-9.97
-10.08
-9.75
-9.00
-7.85
-6.28
-4.32
-2.02
0.47
2.87
4.91
6.36
7.14
7.33
7.12
6.82
6.71
6.95
7.53
8.24
8.82
9.08
8.98
8.73
8.61
8.78
9.24
9.73
9.95
9.73
9.11
8.39
7.83
7.59
7.53
7.33
6.67
5.35
3.48
1.37
-0.56
-1.98
-2.85
-3.29
-3.50
-3.63
-3.71
-3.70
-3.62
-3.59
-3.76
-4.27
-5.06
-5.96
-6.83
-7.60
-8.38
-9.38
-10.71
-12.24
-13.62
-14.40
-14.23
-13.01
-10.94
-8.34
-5.57
-2.90
-0.47
1.66
3.42
4.75
5.56
5.89
5.86
5.72
5.74
6.06
6.64
7.29
7.78
7.95
7.82
7.51
7.20
7.02
7.00
7.12
7.26
7.27
7.00
6.30
5.11
3.43
1.41
-0.75
-2.87
-4.87
-6.76
-8.55
-10.18
-11.50
-12.34
-12.63
-12.50
-12.25
-12.24
-12.76
-13.90
-15.47
-17.13
-18.41
-18.90
-18.41
-17.01
-15.01
-12.91
-11.09
-9.69
-8.51
-7.12
-5.12
-2.43
0.66
3.57
5.72
6.83
6.95
6.48
5.93
5.68
5.90
6.56
7.49
8.51
9.42
10.07
10.31
10.07
9.35
8.21
6.80
5.23
3.64
2.18
0.96
0.12
-0.31
-0.37
-0.25
-0.20
-0.49
-1.26
-2.52
-4.14
-5.90
-7.54
-8.84
-9.63
-9.91
-9.79
-9.54
-9.45
-9.72
-10.33
-10.98
-11.23
-10.63
-8.97
-6.38
-3.30
-0.33
2.03
3.56
4.33
4.70
5.05
5.59
6.30
6.95
7.33
7.39
7.35
7.54
8.28
9.61
11.30
12.92
14.05
14.52
14.42
14.02
13.58
13.26
13.03
12.72
12.18
11.32
10.13
8.69
7.18
5.77
4.57
3.66
2.89
2.10
1.07
-0.21
-1.66
-3.02
-4.14
-5.03
-5.87
-6.90
-8.22
-9.68
-11.03
-11.96
-12.42
-12.53
-12.50
-12.42
-12.10
-11.21
-9.48
-6.87
-3.68
-0.43
2.34
4.25
5.22
5.42
5.18
4.85
4.71
4.91
5.46
6.29
7.21
8.09
8.78
9.18
9.31
9.15
8.76
8.25
7.73
7.32
7.04
6.81
6.44
5.70
4.47
2.80
0.92
-0.85
-2.24
-3.17
-3.78
-4.31
-5.02
-5.99
-7.16
-8.32
-9.25
-9.84
-10.09
-10.16
-10.31
-10.80
-11.81
-13.32
-15.11
-16.77
-17.78
-17.75
-16.51
-14.18
-11.19
-8.02
-5.11
-2.69
-0.81
0.57
1.48
2.00
2.21
2.27
2.42
2.84
3.61
4.62
5.62
6.40
6.81
6.91
6.81
6.58
6.20
5.61
4.78
3.80
2.90
2.30
2.00
1.77
1.22
0.02
-1.86
-4.10
-6.15
-7.53
-8.01
-7.76
-7.16
-6.65
-6.60
-7.14
-8.25
-9.78
-11.41
-12.73
-13.31
-12.81
-11.13
-8.49
-5.36
-2.32
0.21
2.07
3.35
4.34
5.29
6.29
7.29
8.18
8.85
9.29
9.57
9.79
10.02
10.28
10.55
10.78
10.89
10.81
10.47
9.91
9.29
8.79
8.53
8.49
8.46
8.18
7.47
6.36
5.05
3.88
3.08
2.72
2.70
2.72
2.45
1.64
0.22
-1.64
-3.53
-4.97
-5.65
-5.58
-5.07
-4.65
-4.77
-5.65
-7.21
-9.14
-11.03
-12.47
-13.04
-12.47
-10.64
-7.71
-4.13
-0.56
2.36
4.26
5.08
5.12
4.74
4.33
4.13
4.23
4.68
5.45
6.48
7.70
9.00
10.24
11.25
11.88
12.04
11.77
11.26
10.77
10.47
10.34
10.19
9.72
8.66
6.95
4.78
2.49
0.41
-1.26
-2.47
-3.34
-3.99
-4.55
-5.10
-5.67
-6.19
-6.61
-6.87
-6.98
-7.12
-7.52
-8.42
-9.93
-11.89
-13.92
-15.49
-16.04
-15.30
-13.33
-10.50
-7.36
-4.39
-1.87
0.17
1.87
3.36
4.67
5.65
6.15
6.12
5.72
5.28
5.16
5.58
6.47
7.49
8.25
8.48
8.14
7.47
6.77
6.17
5.64
4.95
3.93
2.54
0.90
-0.83
-2.50
-4.06
-5.44
-6.54
-7.19
-7.29
-6.97
-6.60
-6.62
-7.29
-8.52
-9.93
-11.05
-11.63
-11.78
-11.86
-12.20
-12.87
-13.55
-13.75
-13.06
-11.34
-8.90
-6.23
-3.74
-1.65
0.12
1.77
3.46
5.16
6.69
7.83
8.50
8.79
8.95
9.21
9.67
10.33
11.06
11.76
12.31
12.65
12.66
12.26
11.43
10.31
9.10
8.04
7.25
6.63
5.96
5.02
3.73
2.29
1.06
0.33
0.19
0.47
0.75
0.66
0.01
-1.13
-2.49
-3.77
-4.80
-5.53
-6.02
-6.31
-6.36
-6.12
-5.62
-5.07
-4.83
-5.27
-6.52
-8.34
-10.17
-11.25
-11.03
-9.34
-6.47
-3.05
0.22
2.87
4.67
5.70
6.21
6.46
6.69
7.04
7.48
7.94
8.28
8.47
8.56
8.70
9.07
9.74
10.62
11.48
12.04
12.06
11.44
10.28
8.81
7.35
6.18
5.44
5.06
4.81
4.41
3.71
2.79
1.87
1.18
0.78
0.52
0.16
-0.46
-1.35
-2.33
-3.23
-4.05
-4.89
-5.90
-7.10
-8.31
-9.28
-9.85
-10.12
-10.39
-11.03
-12.08
-13.27
-13.95
-13.48
-11.50
-8.23
-4.38
-0.82
1.72
3.03
3.36
3.32
3.44
4.01
4.96
5.98
6.84
7.40
7.76
8.01
8.23
8.35
8.26
7.91
7.36
6.78
6.32
6.04
5.80
5.34
4.39
2.73
0.41
-2.26
-4.87
-7.04
-8.55
-9.48
-10.06
-10.55
-11.10
-11.68
-12.16
-12.39
-12.41
-12.33
-12.44
-12.97
-14.01
-15.40
-16.67
-17.23
-16.58
-14.53
-11.35
-7.70
-4.28
-1.62
0.20
1.35
2.16
2.85
3.49
4.02
4.39
4.69
5.11
5.79
6.75
7.86
8.92
9.73
10.17
10.23
9.97
9.54
9.10
8.82
8.73
8.72
8.49
7.72
6.19
4.02
1.62
-0.48
-1.89
-2.61
-2.93
-3.35
-4.15
-5.34
-6.69
-7.87
-8.73
-9.25
-9.54
-9.69
-9.73
-9.68
-9.59
-9.63
-9.95
-10.61
-11.47
-12.19
-12.35
-11.60
-9.83
-7.26
-4.28
-1.40
1.01
2.79
3.97
4.70
5.16
5.50
5.86
6.36
7.11
8.08
9.13
10.01
10.48
10.49
10.18
9.87
9.81
10.09
10.59
11.07
11.34
11.37
11.22
10.97
10.62
10.14
9.47
8.60
7.63
6.67
5.89
5.44
5.37
5.62
5.99
6.17
5.80
4.73
2.97
0.84
-1.27
-3.03
-4.34
-5.32
-6.19
-7.00
-7.58
-7.72
-7.32
-6.65
-6.25
-6.66
-8.12
-10.35
-12.67
-14.29
-14.61
-13.52
-11.30
-8.51
-5.73
-3.45
-1.99
-1.47
-1.84
-2.82
-3.98
-4.82
-4.91
-4.07
-2.45
-0.48
1.26
2.37
2.74
2.64
2.51
2.78
3.63
4.88
6.16
7.06
7.33
7.02
6.33
5.56
4.93
4.56
4.50
4.70
5.06
5.44
5.65
5.52
4.95
4.02
2.96
2.04
1.48
1.32
1.43
1.53
1.38
0.91
0.27
-0.22
-0.33
0.04
0.81
1.82
2.94
4.13
5.40
6.66
7.73
8.34
8.36
7.80
6.88
5.93
5.25
4.94
4.96
5.18
5.40
5.48
5.32
4.88
4.23
3.53
2.90
2.40
1.88
1.06
-0.31
-2.30
-4.64
-6.87
-8.59
-9.70
-10.47
-11.32
-12.56
-14.10
-15.51
-16.31
-16.36
-15.92
-15.52
-15.53
-15.87
-15.97
-15.14
-13.02
-9.93
-6.72
-4.38
-3.42
-3.71
-4.54
-5.13
-5.03
-4.37
-3.56
-3.05
-2.93
-2.97
-2.79
-2.15
-1.11
0.07
1.11
1.88
2.51
3.18
3.98
4.81
5.44
5.59
5.09
3.91
2.16
-0.01
-2.34
-4.60
-6.60
-8.17
-9.28
-9.97
-10.31
-10.42
-10.42
-10.44
-10.59
-10.92
-11.29
-11.46
-11.08
-9.89
-7.81
-4.96
-1.68
1.62
4.52
6.74
8.11
8.64
8.45
7.79
6.97
6.26
5.88
5.90
6.32
6.97
7.74
8.50
9.12
9.52
9.69
9.65
9.50
9.35
9.31
9.38
9.40
9.10
8.27
6.87
5.12
3.40
2.07
1.36
1.20
1.33
1.47
1.39
0.97
0.19
-0.97
-2.42
-3.99
-5.47
-6.58
-7.20
-7.39
-7.42
-7.60
-8.12
-8.91
-9.64
-9.89
-9.31
-7.81
-5.58
-2.99
-0.44
1.75
3.43
4.62
5.43
6.01
6.46
6.87
7.33
7.95
8.75
9.72
10.73
11.60
12.15
12.34
12.24
11.97
11.60
11.10
10.35
9.36
8.24
7.31
6.88
7.09
7.77
8.46
8.68
8.09
6.65
4.61
2.37
0.34
-1.16
-1.98
-2.17
-1.95
-1.66
-1.66
-2.18
-3.19
-4.52
-5.87
-6.98
-7.73
-8.15
-8.37
-8.48
-8.56
-8.60
-8.60
-8.52
-8.25
-7.70
-6.76
-5.40
-3.71
-1.86
0.00
1.77
3.41
4.91
6.22
7.26
7.93
8.15
7.91
7.36
6.72
6.30
6.29
6.77
7.63
8.53
9.14
9.17
8.56
7.51
6.33
5.36
4.67
4.19
3.66
2.78
1.42
-0.43
-2.53
-4.57
-6.23
-7.33
-7.86
-8.01
-8.06
-8.29
-8.84
-9.72
-10.80
-11.92
-12.94
-13.74
-14.20
-14.13
-13.38
-11.91
-9.92
-7.80
-6.00
-4.84
-4.37
-4.33
-4.37
-4.15
-3.57
-2.68
-1.69
-0.73
0.16
1.03
1.93
2.87
3.78
4.61
5.30
5.85
6.26
6.49
6.52
6.37
6.13
5.90
5.80
5.82
5.80
5.49
4.62
3.07
0.90
-1.62
-4.15
-6.36
-8.02
-9.04
-9.44
-9.32
-8.83
-8.20
-7.72
-7.66
-8.17
-9.15
-10.25
-10.97
-10.91
-9.93
-8.21
-6.16
-4.21
-2.64
-1.55
-0.91
-0.58
-0.46
-0.46
-0.46
-0.36
-0.05
0.51
1.34
2.40
3.61
4.89
6.09
7.05
7.67
7.99
8.19
8.53
9.16
9.97
10.67
10.95
10.70
10.11
9.55
9.28
9.24
9.03
8.18
6.44
4.06
1.62
-0.23
-1.18
-1.39
-1.26
-1.19
-1.25
-1.31
-1.15
-0.80
-0.51
-0.65
-1.43
-2.73
-4.17
-5.29
-5.81
-5.79
-5.52
-5.31
-5.26
-5.23
-4.92
-4.04
-2.54
-0.65
1.18
2.47
2.97
2.77
2.22
1.77
1.71
2.11
2.86
3.78
4.84
6.04
7.38
8.69
9.71
10.15
9.94
9.24
8.39
7.74
7.44
7.45
7.61
7.76
7.83
7.74
7.46
6.85
5.80
4.25
2.26
-0.00
-2.31
-4.43
-6.12
-7.21
-7.64
-7.48
-6.96
-6.40
-6.05
-6.05
-6.28
-6.51
-6.49
-6.16
-5.61
-5.11
-4.90
-5.05
-5.46
-5.86
-6.00
-5.75
-5.08
-4.09
-2.80
-1.18
0.84
3.21
5.72
8.01
9.70
10.64
10.95
10.97
10.99
11.18
11.46
11.63
11.54
11.19
10.67
10.07
9.33
8.28
6.78
4.84
2.72
0.77
-0.80
-1.96
-2.94
-4.04
-5.47
-7.20
-9.04
-10.68
-11.92
-12.62
-12.81
-12.56
-11.93
-10.96
-9.74
-8.48
-7.51
-7.18
-7.73
-9.05
-10.69
-11.93
-12.08
-10.86
-8.53
-5.86
-3.74
-2.74
-2.80
-3.35
-3.67
-3.28
-2.20
-0.76
0.65
1.83
2.81
3.70
4.47
4.94
4.88
4.27
3.32
2.46
2.08
2.30
2.98
3.78
4.36
4.52
4.20
3.42
2.17
0.46
-1.61
-3.82
-5.87
-7.41
-8.21
-8.24
-7.67
-6.79
-5.90
-5.24
-4.95
-5.11
-5.74
-6.74
-7.88
-8.76
-8.91
-8.06
-6.26
-3.87
-1.47
0.44
1.62
2.11
2.17
2.11
2.18
2.52
3.10
3.85
4.64
5.39
6.03
6.58
7.06
7.49
7.85
8.08
8.06
7.77
7.27
6.65
6.03
5.39
4.67
3.76
2.67
1.53
0.52
-0.14
-0.37
-0.23
0.07
0.24
0.02
-0.72
-1.95
-3.42
-4.81
-5.79
-6.20
-6.04
-5.54
-5.02
-4.80
-5.03
-5.65
-6.41
-7.00
-7.16
-6.77
-5.80
-4.37
-2.62
-0.73
1.19
2.98
4.50
5.59
6.15
6.15
5.69
4.98
4.30
3.92
3.98
4.50
5.35
6.29
7.11
7.72
8.19
8.63
9.12
9.69
10.20
10.51
10.50
10.11
9.38
8.40
7.24
5.90
4.40
2.79
1.27
0.07
-0.63
-0.85
-0.89
-1.14
-1.94
-3.35
-5.12
-6.77
-7.85
-8.17
-7.86
-7.28
-6.84
-6.75
-7.01
-7.36
-7.51
-7.20
-6.40
-5.23
-3.96
-2.82
-1.88
-1.04
-0.09
1.08
2.37
3.53
4.30
4.56
4.50
4.44
4.73
5.50
6.62
7.75
8.52
8.76
8.48
7.94
7.43
7.16
7.19
7.37
7.49
7.33
6.76
5.77
4.44
2.92
1.31
-0.28
-1.73
-3.02
-4.16
-5.29
-6.52
-7.93
-9.51
-11.13
-12.60
-13.75
-14.46
-14.76
-14.75
-14.64
-14.66
-15.01
-15.71
-16.56
-17.14
-17.02
-15.98
-14.16
-11.91
-9.70
-7.74
-5.97
-4.14
-2.05
0.22
2.36
4.01
4.96
5.28
5.27
5.27
5.48
5.85
6.21
6.36
6.20
5.69
4.96
4.19
3.63
3.43
3.66
4.20
4.79
5.14
5.08
4.56
3.73
2.77
1.81
0.89
-0.02
-0.93
-1.76
-2.45
-2.98
-3.43
-3.93
-4.57
-5.34
-6.15
-6.93
-7.71
-8.61
-9.64
-10.66
-11.33
-11.27
-10.25
-8.41
-6.18
-4.16
-2.79
-2.17
-2.09
-2.12
-1.91
-1.27
-0.19
1.20
2.73
4.21
5.52
6.58
7.42
8.16
8.97
9.95
11.06
12.08
12.66
12.60
11.92
10.92
9.97
9.26
8.71
8.01
6.95
5.59
4.34
3.71
3.96
4.91
6.01
6.59
6.20
4.86
2.98
1.06
-0.54
-1.71
-2.57
-3.32
-4.14
-5.13
-6.26
-7.47
-8.59
-9.52
-10.22
-10.73
-11.11
-11.31
-11.21
-10.57
-9.23
-7.21
-4.80
-2.41
-0.43
0.97
1.91
2.69
3.55
4.50
5.43
6.13
6.60
7.06
7.84
9.19
11.05
13.12
14.92
16.09
16.45
16.10
15.24
14.06
12.70
11.20
9.59
7.96
6.43
5.09
3.94
2.89
1.79
0.49
-1.02
-2.63
-4.13
-5.30
-5.97
-6.22
-6.27
-6.40
-6.78
-7.43
-8.21
-8.98
-9.70
-10.45
-11.31
-12.25
-13.04
-13.33
-12.78
-11.26
-8.92
-6.18
-3.50
-1.25
0.43
1.64
2.60
3.53
4.49
5.41
6.11
6.40
6.28
5.86
5.40
5.12
5.13
5.42
5.81
6.07
6.06
5.71
5.08
4.27
3.36
2.40
1.40
0.36
-0.78
-2.09
-3.60
-5.29
-7.03
-8.67
-10.03
-11.00
-11.53
-11.65
-11.40
-10.88
-10.24
-9.66
-9.33
-9.33
-9.56
-9.74
-9.53
-8.64
-7.03
-4.96
-2.83
-1.03
0.21
0.92
1.29
1.57
1.95
2.48
3.15
3.92
4.77
5.80
7.11
8.72
10.43
11.87
12.61
12.39
11.26
9.57
7.81
6.36
5.33
4.56
3.76
2.73
1.52
0.38
-0.40
-0.65
-0.43
-0.02
0.16
-0.19
-1.26
-2.99
-5.07
-7.16
-8.94
-10.25
-11.11
-11.66
-12.04
-12.37
-12.63
-12.76
-12.64
-12.05
-10.77
-8.55
-5.34
-1.33
2.96
6.80
9.50
10.67
10.39
9.20
7.82
6.96
7.00
7.94
9.43
10.99
12.23
12.96
13.29
13.48
13.77
14.17
14.51
14.46
13.80
12.53
10.89
9.32
8.25
7.86
7.96
8.13
7.88
6.90
5.23
3.26
1.48
0.22
-0.52
-1.07
-1.79
-2.89
-4.21
-5.41
-6.09
-6.13
-5.70
-5.21
-5.05
-5.47
-6.45
-7.82
-9.33
-10.74
-11.89
-12.64
-12.86
-12.42
-11.20
-9.17
-6.38
-3.13
0.14
2.83
4.46
4.80
4.07
2.84
1.86
1.73
2.68
4.48
6.58
8.40
9.58
10.00
9.85
9.34
8.72
8.05
7.32
6.48
5.53
4.59
3.80
3.31
3.09
2.88
2.31
1.03
-1.06
-3.74
-6.47
-8.61
-9.66
-9.49
-8.33
-6.69
-5.22
-4.43
-4.65
-5.86
-7.77
-9.79
-11.33
-12.02
-11.78
-10.85
-9.61
-8.41
-7.38
-6.49
-5.64
-4.84
-4.15
-3.68
-3.39
-3.14
-2.69
-1.86
-0.66
0.75
2.10
3.16
3.86
4.25
4.45
4.55
4.58
4.51
4.32
4.02
3.64
3.23
2.84
2.41
1.87
1.10
-0.02
-1.51
-3.22
-4.90
-6.27
-7.14
-7.50
-7.53
-7.49
-7.68
-8.20
-9.06
-10.11
-11.17
-11.97
-12.25
-11.80
-10.48
-8.43
-6.01
-3.73
-2.01
-1.05
-0.72
-0.64
-0.41
0.21
1.18
2.30
3.26
3.85
4.11
4.27
4.62
5.38
6.56
7.92
9.20
10.17
10.80
11.20
11.48
11.63
11.45
10.69
9.23
7.24
5.15
3.44
2.41
2.07
2.08
1.99
1.40
0.08
-1.87
-4.13
-6.27
-7.89
-8.71
-8.70
-8.04
-7.05
-6.16
-5.74
-6.09
-7.29
-9.11
-11.12
-12.72
-13.33
-12.61
-10.58
-7.53
-4.03
-0.60
2.31
4.41
5.65
6.10
6.08
5.98
6.26
7.12
8.49
10.03
11.27
11.94
12.08
12.03
12.14
12.66
13.46
14.25
14.70
14.61
14.02
13.04
11.81
10.32
8.63
6.78
5.03
3.66
2.88
2.70
2.91
3.15
3.07
2.46
1.29
-0.32
-2.12
-3.86
-5.23
-6.02
-6.07
-5.42
-4.27
-3.01
-2.08
-1.85
-2.55
-4.10
-6.16
-8.20
-9.65
-10.10
-9.39
-7.64
-5.23
-2.68
-0.47
1.12
2.03
2.42
2.56
2.66
2.81
2.96
3.04
3.10
3.35
4.08
5.42
7.16
8.84
9.90
9.97
9.06
7.51
5.76
4.13
2.79
1.70
0.76
-0.09
-0.91
-1.73
-2.48
-3.10
-3.50
-3.64
-3.64
-3.71
-4.12
-5.07
-6.55
-8.37
-10.25
-11.88
-13.10
-13.86
-14.24
-14.38
-14.49
-14.70
-15.10
-15.61
-16.03
-16.09
-15.52
-14.19
-12.14
-9.52
-6.57
-3.58
-0.83
1.41
3.00
3.94
4.40
4.61
4.74
4.86
4.94
5.01
5.20
5.72
6.73
8.19
9.76
10.99
11.51
11.27
10.61
10.02
9.82
9.99
10.21
10.03
9.27
7.99
6.51
5.10
3.82
2.53
1.09
-0.43
-1.69
-2.28
-2.01
-1.11
-0.22
-0.05
-1.01
-2.94
-5.23
-7.18
-8.32
-8.67
-8.54
-8.33
-8.29
-8.45
-8.72
-8.97
-9.10
-9.03
-8.56
-7.48
-5.62
-3.08
-0.23
2.29
3.87
4.24
3.61
2.59
1.85
1.80
2.44
3.42
4.36
5.07
5.67
6.43
7.49
8.69
9.64
9.90
9.32
8.14
6.86
6.02
5.91
6.48
7.45
8.44
9.14
9.38
9.08
8.22
6.87
5.13
3.20
1.39
-0.09
-1.12
-1.70
-1.98
-2.10
-2.21
-2.38
-2.65
-3.00
-3.43
-3.88
-4.31
-4.68
-4.95
-5.19
-5.52
-6.07
-6.92
-7.98
-9.04
-9.78
-9.90
-9.20
-7.68
-5.50
-2.91
-0.23
2.26
4.32
5.76
6.54
6.81
6.89
7.15
7.83
8.90
10.09
11.00
11.35
11.03
10.14
8.88
7.40
5.89
4.45
3.24
2.34
1.75
1.35
0.95
0.31
-0.74
-2.23
-4.10
-6.15
-8.11
-9.72
-10.72
-10.94
-10.46
-9.49
-8.44
-7.73
-7.59
-8.12
-9.23
-10.77
-12.59
-14.51
-16.19
-17.26
-17.34
-16.21
-13.98
-11.11
-8.14
-5.61
-3.77
-2.55
-1.72
-1.08
-0.45
0.23
0.98
1.84
2.81
3.76
4.52
4.95
5.04
5.01
5.16
5.77
6.81
8.03
9.01
9.42
9.16
8.36
7.27
6.08
4.91
3.82
2.84
2.07
1.59
1.40
1.33
1.10
0.41
-0.85
-2.59
-4.50
-6.17
-7.36
-8.00
-8.24
-8.36
-8.54
-8.89
-9.36
-9.79
-10.04
-9.92
-9.36
-8.25
-6.58
-4.46
-2.16
-0.08
1.36
1.96
1.77
1.20
0.76
0.86
1.60
2.84
4.23
5.48
6.44
7.13
7.70
8.29
8.97
9.70
10.42
11.05
11.53
11.84
11.93
11.72
11.13
10.19
9.00
7.79
6.72
5.89
5.24
4.61
3.86
2.98
2.12
1.52
1.29
1.28
1.22
0.82
-0.09
-1.43
-3.00
-4.59
-6.02
-7.18
-7.97
-8.34
-8.30
-8.03
-7.86
-8.14
-9.00
-10.24
-11.31
-11.58
-10.57
-8.26
-5.10
-1.77
1.02
2.84
3.65
3.75
3.59
3.58
3.91
4.58
5.48
6.49
7.55
8.62
9.59
10.29
10.54
10.26
9.60
8.89
8.48
8.52
8.89
9.18
8.99
8.11
6.64
4.98
3.54
2.53
1.89
1.32
0.49
-0.75
-2.25
-3.75
-4.91
-5.53
-5.63
-5.44
-5.26
-5.38
-5.96
-7.07
-8.72
-10.84
-13.32
-15.84
-17.88
-18.84
-18.26
-16.06
-12.74
-9.20
-6.41
-4.92
-4.67
-5.04
-5.23
-4.67
-3.29
-1.42
0.47
2.01
3.17
4.09
4.98
5.91
6.77
7.36
7.58
7.51
7.31
7.16
7.12
7.05
6.71
5.94
4.70
3.16
1.56
0.10
-1.20
-2.44
-3.77
-5.23
-6.73
-8.10
-9.14
-9.77
-9.99
-9.91
-9.70
-9.54
-9.57
-9.84
-10.26
-10.59
-10.48
-9.58
-7.75
-5.14
-2.18
0.57
2.64
3.83
4.27
4.31
4.31
4.49
4.89
5.45
6.06
6.67
7.28
7.90
8.55
9.22
9.93
10.69
11.50
12.22
12.74
12.88
12.55
11.77
10.62
9.27
7.88
6.58
5.42
4.44
3.61
2.93
2.39
1.98
1.66
1.31
0.75
-0.18
-1.57
-3.30
-5.12
-6.64
-7.58
-7.83
-7.57
-7.11
-6.82
-6.98
-7.69
-8.85
-10.18
-11.34
-11.91
-11.57
-10.13
-7.57
-4.20
-0.47
3.02
5.67
7.16
7.45
6.86
5.91
5.15
4.91
5.26
6.07
7.16
8.42
9.81
11.25
12.52
13.30
13.27
12.35
10.79
9.11
7.81
7.13
7.00
7.05
6.90
6.38
5.59
4.71
3.90
3.12
2.20
0.98
-0.60
-2.43
-4.23
-5.75
-6.80
-7.37
-7.62
-7.78
-8.06
-8.51
-9.13
-9.81
-10.57
-11.48
-12.63
-14.05
-15.51
-16.61
-16.94
-16.22
-14.49
-12.06
-9.32
-6.53
-3.85
-1.30
1.06
3.08
4.65
5.79
6.65
7.46
8.39
9.45
10.53
11.44
12.12
12.56
12.84
12.99
12.98
12.66
11.92
10.68
9.03
7.15
5.30
3.74
2.59
1.81
1.23
0.56
-0.44
-1.91
-3.90
-6.37
-9.18
-12.15
-14.93
-17.12
-18.37
-18.51
-17.73
-16.51
-15.42
-14.81
-14.66
-14.61
-14.18
-13.09
-11.36
-9.22
-6.93
-4.66
-2.47
-0.41
1.41
2.87
3.95
4.78
5.57
6.43
7.31
8.03
8.46
8.74
9.15
9.95
11.12
12.27
12.89
12.61
11.44
9.76
8.13
6.95
6.31
5.99
5.65
4.99
3.95
2.67
1.42
0.46
-0.12
-0.42
-0.61
-0.87
-1.25
-1.63
-1.93
-2.14
-2.39
-2.84
-3.63
-4.70
-5.87
-6.87
-7.50
-7.75
-7.69
-7.56
-7.56
-7.85
-8.43
-9.13
-9.60
-9.47
-8.43
-6.32
-3.35
0.07
3.36
5.91
7.33
7.48
6.62
5.31
4.28
4.08
4.84
6.24
7.67
8.62
8.92
8.89
8.99
9.59
10.65
11.77
12.47
12.42
11.71
10.68
9.72
8.98
8.33
7.51
6.33
4.80
3.12
1.58
0.36
-0.48
-1.02
-1.40
-1.78
-2.27
-2.90
-3.59
-4.21
-4.63
-4.78
-4.76
-4.80
-5.13
-5.89
-7.02
-8.29
-9.42
-10.27
-10.92
-11.59
-12.44
-13.38
-14.05
-13.93
-12.68
-10.28
-7.10
-3.70
-0.51
2.27
4.74
7.01
9.08
10.76
11.79
12.12
12.02
12.00
12.53
13.73
15.22
16.34
16.46
15.33
13.22
10.81
8.75
7.43
6.84
6.67
6.55
6.25
5.71
4.97
4.10
3.11
1.98
0.69
-0.77
-2.30
-3.86
-5.39
-6.91
-8.48
-10.18
-12.03
-13.98
-15.86
-17.46
-18.63
-19.37
-19.83
-20.18
-20.48
-20.56
-20.07
-18.68
-16.27
-13.06
-9.51
-6.13
-3.29
-1.16
0.29
1.22
1.72
1.86
1.71
1.34
0.93
0.69
0.91
1.72
3.09
4.73
6.21
7.21
7.60
7.60
7.58
7.86
8.44
9.02
9.16
8.50
7.03
5.05
3.03
1.34
0.14
-0.67
-1.22
-1.67
-2.03
-2.32
-2.62
-3.09
-3.88
-5.01
-6.30
-7.47
-8.25
-8.52
-8.43
-8.32
-8.59
-9.47
-10.87
-12.33
-13.20
-12.86
-11.01
-7.85
-4.03
-0.36
2.50
4.27
5.15
5.59
6.01
6.62
7.30
7.85
8.14
8.20
8.22
8.40
8.86
9.57
10.40
11.15
11.64
11.77
11.50
10.90
10.12
9.34
8.68
8.20
7.88
7.63
7.36
6.99
6.44
5.64
4.50
2.98
1.21
-0.60
-2.16
-3.27
-3.87
-4.14
-4.37
-4.88
-5.81
-7.15
-8.67
-10.04
-10.91
-11.04
-10.42
-9.27
-8.01
-7.03
-6.54
-6.48
-6.53
-6.27
-5.37
-3.72
-1.46
1.10
3.60
5.75
7.34
8.30
8.63
8.44
7.92
7.27
6.69
6.32
6.25
6.53
7.18
8.16
9.31
10.43
11.21
11.43
11.03
10.17
9.17
8.33
7.78
7.44
7.11
6.60
5.84
4.87
3.77
2.56
1.26
-0.18
-1.74
-3.27
-4.61
-5.57
-6.09
-6.30
-6.35
-6.51
-6.96
-7.87
-9.33
-11.41
-14.01
-16.85
-19.42
-21.03
-21.07
-19.25
-15.78
-11.41
-7.10
-3.71
-1.66
-0.80
-0.66
-0.71
-0.67
-0.49
-0.28
-0.08
0.22
0.85
2.01
3.63
5.43
6.96
7.84
7.94
7.45
6.75
6.16
5.85
5.70
5.52
5.11
4.41
3.48
2.38
1.11
-0.39
-2.20
-4.26
-6.33
-8.01
-8.94
-9.00
-8.32
-7.31
-6.46
-6.17
-6.60
-7.75
-9.37
-11.16
-12.72
-13.64
-13.59
-12.44
-10.29
-7.53
-4.71
-2.34
-0.79
-0.11
-0.10
-0.36
-0.46
-0.13
0.70
1.87
3.12
4.26
5.24
6.18
7.24
8.47
9.74
10.78
11.35
11.40
11.04
10.55
10.13
9.87
9.72
9.60
9.45
9.21
8.83
8.16
7.16
5.90
4.53
3.31
2.29
1.36
0.25
-1.24
-3.09
-5.00
-6.51
-7.28
-7.27
-6.81
-6.37
-6.32
-6.78
-7.61
-8.54
-9.34
-9.89
-10.06
-9.72
-8.70
-6.93
-4.54
-1.85
0.70
2.78
4.24
5.14
5.63
5.87
5.96
5.97
6.00
6.17
6.52
7.03
7.55
7.96
8.23
8.43
8.71
9.18
9.82
10.58
11.32
11.86
12.08
11.86
11.09
9.73
7.86
5.70
3.64
2.05
1.19
1.04
1.33
1.61
1.52
0.88
-0.21
-1.57
-2.97
-4.31
-5.62
-6.89
-8.09
-9.12
-9.99
-10.86
-11.96
-13.43
-15.14
-16.67
-17.53
-17.34
-16.04
-13.88
-11.23
-8.45
-5.75
-3.25
-1.05
0.66
1.80
2.39
2.67
3.04
3.84
5.17
6.82
8.38
9.44
9.78
9.50
8.82
8.03
7.21
6.34
5.32
4.16
2.98
2.01
1.32
0.81
0.23
-0.65
-1.88
-3.33
-4.74
-5.92
-6.83
-7.58
-8.29
-9.03
-9.72
-10.24
-10.47
-10.41
-10.17
-9.95
-9.90
-10.06
-10.32
-10.42
-10.05
-9.02
-7.31
-5.19
-3.04
-1.22
0.12
1.06
1.78
2.49
3.25
4.07
4.89
5.76
6.75
7.88
9.08
10.16
10.89
11.14
11.01
10.69
10.37
10.07
9.62
8.83
7.64
6.27
5.02
4.17
3.69
3.28
2.56
1.29
-0.46
-2.34
-3.95
-5.09
-5.78
-6.22
-6.60
-6.95
-7.18
-7.19
-6.98
-6.69
-6.52
-6.59
-6.96
-7.53
-8.16
-8.61
-8.67
-8.14
-6.93
-5.11
-2.89
-0.57
1.50
3.10
4.15
4.72
4.99
5.14
5.35
5.70
6.22
6.85
7.49
8.07
8.55
9.02
9.59
10.40
11.41
12.47
13.27
13.49
12.92
11.66
9.93
8.16
6.62
5.47
4.60
3.79
2.81
1.56
0.16
-1.14
-2.05
-2.42
-2.30
-1.95
-1.72
-1.88
-2.44
-3.23
-3.93
-4.32
-4.31
-4.05
-3.80
-3.87
-4.45
-5.50
-6.78
-7.81
-8.12
-7.40
-5.63
-3.12
-0.37
2.14
4.14
5.60
6.63
7.34
7.72
7.69
7.24
6.46
5.61
5.00
4.84
5.26
6.24
7.58
8.98
10.03
10.37
9.81
8.43
6.57
4.69
3.10
1.87
0.88
-0.08
-1.06
-2.00
-2.73
-3.22
-3.57
-3.96
-4.62
-5.62
-6.90
-8.26
-9.50
-10.42
-10.97
-11.22
-11.38
-11.70
-12.30
-13.12
-13.81
-13.95
-13.23
-11.66
-9.61
-7.58
-5.99
-5.00
-4.50
-4.24
-3.94
-3.45
-2.71
-1.79
-0.72
0.43
1.65
2.86
3.93
4.68
4.94
4.65
3.93
3.07
2.38
2.07
2.13
2.31
2.33
1.96
1.22
0.20
-0.93
-2.12
-3.35
-4.58
-5.72
-6.55
-6.92
-6.79
-6.30
-5.74
-5.43
-5.67
-6.65
-8.42
-10.84
-13.55
-16.02
-17.68
-18.08
-17.07
-14.86
-11.92
-8.87
-6.21
-4.18
-2.76
-1.72
-0.78
0.27
1.45
2.63
3.57
4.15
4.48
4.81
5.39
6.27
7.24
7.91
7.98
7.44
6.60
5.95
5.84
6.29
6.97
7.38
7.12
6.07
4.43
2.55
0.79
-0.61
-1.49
-1.82
-1.66
-1.14
-0.44
0.12
0.23
-0.25
-1.23
-2.29
-2.88
-2.52
-0.98
1.56
4.62
7.59
9.88
11.15
11.37
10.76
9.64
8.42
7.40
6.76
6.52
6.57
6.74
6.88
6.85
6.60
6.16
5.53
4.82
4.14
3.59
3.18
2.84
2.41
1.70
0.62
-0.84
-2.52
-4.15
-5.51
-6.51
-7.26
-8.02
-9.08
-10.55
-12.29
-13.91
-14.87
-14.77
-13.54
-11.42
-8.89
-6.47
-4.49
-3.06
-2.10
-1.47
-1.09
-0.91
-0.90
-1.02
-1.14
-1.05
-0.61
0.25
1.44
2.76
4.06
5.24
6.35
7.42
8.44
9.25
9.66
9.53
8.92
8.13
7.46
7.07
6.88
6.73
6.47
6.15
5.92
5.84
5.74
5.19
3.78
1.42
-1.51
-4.29
-6.14
-6.57
-5.58
-3.60
-1.20
1.13
3.08
4.57
5.56
6.10
6.23
6.05
5.73
5.44
5.30
5.30
5.41
5.62
6.01
6.66
7.60
8.65
9.56
9.98
9.77
9.03
8.12
7.41
7.12
7.07
6.88
6.08
4.46
2.20
-0.23
-2.27
-3.59
-4.13
-4.15
-3.98
-3.87
-3.89
-4.05
-4.30
-4.69
-5.28
-6.04
-6.81
-7.29
-7.15
-6.19
-4.41
-1.98
0.75
3.41
5.62
7.07
7.63
7.39
6.62
5.68
4.91
4.52
4.59
5.01
5.61
6.19
6.52
6.43
5.80
4.63
3.07
1.44
0.09
-0.68
-0.80
-0.51
-0.31
-0.73
-2.16
-4.61
-7.70
-10.78
-13.18
-14.47
-14.68
-14.15
-13.41
-12.92
-12.91
-13.34
-13.95
-14.44
-14.52
-14.05
-13.00
-11.50
-9.71
-7.86
-6.08
-4.47
-3.14
-2.13
-1.51
-1.27
-1.39
-1.69
-2.02
-2.15
-1.89
-1.12
0.21
1.98
3.97
5.84
7.28
8.14
8.41
8.27
7.91
7.45
6.96
6.42
5.84
5.30
4.80
4.31
3.64
2.56
0.88
-1.39
-4.01
-6.59
-8.74
-10.20
-10.95
-11.19
-11.26
-11.50
-12.10
-13.03
-14.07
-14.82
-14.95
-14.25
-12.72
-10.52
-7.86
-4.94
-1.95
0.89
3.36
5.24
6.39
6.85
6.83
6.62
6.52
6.67
7.10
7.75
8.55
9.52
10.65
11.92
13.22
14.35
15.14
15.51
15.46
15.09
14.47
13.63
12.52
11.07
9.31
7.32
5.30
3.43
1.90
0.78
0.01
-0.56
-1.12
-1.89
-2.88
-4.04
-5.18
-6.15
-6.91
-7.60
-8.37
-9.31
-10.28
-10.89
-10.69
-9.40
-6.99
-3.83
-0.44
2.62
4.97
6.48
7.26
7.55
7.59
7.53
7.40
7.18
6.84
6.40
6.00
5.79
5.92
6.37
7.06
7.74
8.24
8.46
8.43
8.27
8.07
7.83
7.46
6.80
5.80
4.47
2.88
1.12
-0.75
-2.64
-4.47
-6.00
-6.98
-7.25
-6.85
-6.05
-5.27
-4.90
-5.17
-6.08
-7.47
-9.11
-10.71
-11.94
-12.40
-11.75
-9.81
-6.83
-3.41
-0.38
1.53
2.09
1.64
0.90
0.60
1.04
2.04
3.09
3.78
4.07
4.27
4.80
5.84
7.22
8.46
9.09
8.88
7.93
6.59
5.20
4.01
3.00
2.00
0.79
-0.86
-3.02
-5.60
-8.32
-10.83
-12.83
-14.17
-14.95
-15.34
-15.54
-15.67
-15.88
-16.31
-17.07
-18.13
-19.20
-19.72
-19.08
-16.92
-13.31
-8.83
-4.28
-0.46
2.20
3.64
4.16
4.21
4.15
4.18
4.28
4.34
4.19
3.85
3.48
3.39
3.92
5.17
6.96
8.85
10.34
11.07
10.98
10.26
9.15
7.87
6.48
5.00
3.47
1.99
0.71
-0.31
-1.09
-1.76
-2.47
-3.32
-4.31
-5.45
-6.68
-7.91
-8.97
-9.62
-9.77
-9.49
-9.11
-9.06
-9.60
-10.66
-11.74
-12.19
-11.42
-9.23
-5.85
-1.83
2.18
5.58
7.98
9.26
9.58
9.34
9.08
9.29
10.26
11.91
13.89
15.69
16.89
17.23
16.78
15.77
14.55
13.41
12.51
11.88
11.44
11.06
10.63
10.08
9.33
8.31
6.96
5.25
3.33
1.46
-0.05
-0.95
-1.25
-1.24
-1.36
-1.99
-3.24
-4.87
-6.42
-7.47
-7.87
-7.77
-7.50
-7.38
-7.57
-8.08
-8.82
-9.70
-10.56
-11.12
-10.99
-9.79
-7.40
-4.06
-0.35
3.06
5.69
7.44
8.43
8.86
8.82
8.36
7.61
6.83
6.38
6.49
7.09
7.88
8.49
8.71
8.57
8.23
7.76
7.11
6.17
4.96
3.72
2.80
2.46
2.66
3.03
3.11
2.62
1.56
0.19
-1.12
-2.15
-2.89
-3.53
-4.23
-5.13
-6.21
-7.52
-9.11
-11.10
-13.53
-16.24
-18.85
-20.81
-21.62
-21.02
-19.12
-16.26
-12.97
-9.71
-6.79
-4.39
-2.55
-1.19
-0.23
0.50
1.12
1.64
2.00
2.09
1.93
1.71
1.79
2.46
3.74
5.28
6.47
6.79
6.09
4.66
3.05
1.80
1.14
0.97
0.94
0.70
0.01
-1.20
-2.84
-4.72
-6.60
-8.21
-9.25
-9.60
-9.24
-8.41
-7.47
-6.82
-6.73
-7.30
-8.49
-9.99
-11.35
-11.96
-11.26
-8.91
-5.04
-0.29
4.32
7.80
9.55
9.63
8.66
7.45
6.68
6.57
6.97
7.59
8.19
8.66
8.98
9.15
9.11
8.91
8.64
8.43
8.38
8.42
8.38
8.05
7.36
6.38
5.27
4.13
2.96
1.72
0.47
-0.55
-1.10
-1.06
-0.58
-0.12
-0.17
-1.05
-2.72
-4.83
-6.84
-8.39
-9.38
-10.01
-10.67
-11.64
-12.93
-14.19
-14.91
-14.54
-12.81
-9.79
-5.93
-1.82
1.98
5.08
7.35
8.87
9.76
10.15
10.15
9.87
9.45
9.08
8.93
9.09
9.51
10.02
10.44
10.63
10.60
10.51
10.55
10.79
11.16
11.41
11.28
10.58
9.32
7.74
6.14
4.77
3.73
2.91
2.13
1.23
0.15
-1.00
-2.12
-3.11
-3.95
-4.65
-5.31
-5.97
-6.67
-7.46
-8.42
-9.70
-11.38
-13.35
-15.26
-16.51
-16.55
-15.02
-11.98
-7.84
-3.31
0.89
4.24
6.51
7.76
8.27
8.37
8.30
8.21
8.08
7.89
7.63
7.36
7.23
7.30
7.55
7.78
7.76
7.32
6.47
5.38
4.27
3.32
2.56
1.89
1.13
0.03
-1.52
-3.50
-5.73
-7.86
-9.53
-10.56
-11.00
-11.14
-11.32
-11.79
-12.57
-13.53
-14.49
-15.33
-15.98
-16.28
-16.04
-14.97
-12.87
-9.81
-6.21
-2.76
-0.13
1.29
1.58
1.17
0.71
0.69
1.34
2.50
3.86
5.08
5.96
6.55
6.95
7.25
7.48
7.53
7.32
6.83
6.17
5.47
4.87
4.38
3.98
3.56
3.11
2.75
2.61
2.76
3.09
3.30
2.97
1.82
-0.20
-2.82
-5.50
-7.74
-9.22
-9.92
-10.11
-10.23
-10.66
-11.59
-12.92
-14.23
-14.95
-14.55
-12.75
-9.63
-5.64
-1.42
2.45
5.58
7.88
9.45
10.51
11.17
11.46
11.40
10.96
10.25
9.47
8.78
8.34
8.21
8.39
8.81
9.35
9.87
10.24
10.38
10.26
9.88
9.20
8.13
6.52
4.37
1.92
-0.35
-1.83
-2.14
-1.38
-0.10
0.92
1.07
0.17
-1.46
-3.24
-4.73
-5.74
-6.38
-6.86
-7.33
-7.76
-8.14
-8.54
-9.16
-10.19
-11.66
-13.30
-14.62
-15.07
-14.30
-12.26
-9.22
-5.70
-2.26
0.62
2.64
3.75
4.11
4.00
3.70
3.40
3.24
3.29
3.64
4.32
5.27
6.33
7.23
7.72
7.62
6.94
5.76
4.24
2.46
0.39
-2.08
-4.99
-8.28
-11.74
-15.07
-18.07
-20.68
-23.12
-25.70
-28.77
-32.40
-36.32
-39.98
-42.89
-44.78
-45.76
-46.31
-46.98
-48.20
-50.10
-52.50
-54.97
-56.97
-57.90
-57.25
-54.67
-49.96
-43.13
-34.39
-24.11
-12.82
-1.11
10.36
21.05
30.49
38.49
45.05
50.32
54.53
57.77
59.99
61.02
60.72
59.07
56.38
53.08
49.70
46.61
43.99
41.81
39.86
37.93
35.84
33.44
30.60
27.31
23.68
20.04
16.82
14.42
13.02
12.41
12.11
11.55
10.30
8.26
5.71
3.17
1.19
0.16
0.23
1.32
3.14
5.30
7.37
8.86
9.46
9.01
7.68
5.86
4.02
2.55
1.55
0.84
0.21
-0.52
-1.31
-1.97
-2.26
-2.07
-1.46
-0.58
0.43
1.53
2.70
3.92
5.00
5.66
5.64
4.88
3.55
2.05
0.74
-0.15
-0.67
-0.98
-1.26
-1.54
-1.68
-1.55
-1.19
-0.83
-0.78
-1.19
-1.93
-2.65
-2.84
-2.23
-0.78
1.23
3.45
5.56
7.44
9.13
10.69
12.16
13.40
14.17
14.18
13.29
11.62
9.58
7.78
6.78
6.78
7.54
8.42
8.79
8.26
6.93
5.26
3.80
2.91
2.59
2.63
2.70
2.55
2.06
1.17
-0.11
-1.73
-3.64
-5.67
-7.67
-9.54
-11.27
-12.94
-14.60
-16.20
-17.54
-18.42
-18.74
-18.63
-18.37
-18.25
-18.41
-18.76
-19.02
-18.99
-18.50
-17.60
-16.46
-15.15
-13.65
-11.87
-9.75
-7.34
-4.80
-2.31
0.04
2.26
4.34
6.15
7.40
7.86
7.45
6.41
5.22
4.41
4.28
4.84
5.80
6.74
7.35
7.50
7.22
6.64
5.91
5.15
4.51
4.16
4.19
4.59
5.13
5.47
5.28
4.40
2.95
1.23
-0.40
-1.62
-2.36
-2.68
-2.77
-2.84
-3.04
-3.50
-4.24
-5.24
-6.40
-7.59
-8.74
-9.76
-10.61
-11.20
-11.43
-11.28
-10.84
-10.35
-10.13
-10.31
-10.85
-11.37
-11.39
-10.53
-8.73
-6.25
-3.60
-1.25
0.52
1.71
2.54
3.29
4.21
5.40
6.79
8.19
9.31
9.89
9.87
9.39
8.79
8.49
8.79
9.62
10.64
11.31
11.26
10.44
9.16
7.89
6.96
6.43
6.05
5.48
4.53
3.22
1.82
0.65
-0.04
-0.27
-0.20
-0.12
-0.32
-0.98
-2.03
-3.26
-4.29
-4.83
-4.74
-4.20
-3.54
-3.14
-3.18
-3.55
-3.96
-4.19
-4.20
-4.15
-4.32
-4.84
-5.62
-6.38
-6.80
-6.68
-5.98
-4.73
-3.04
-1.00
1.23
3.38
5.12
6.15
6.43
6.18
5.85
5.85
6.42
7.50
8.91
10.40
11.83
13.11
14.12
14.72
14.71
13.96
12.52
10.68
8.87
7.49
6.75
6.57
6.64
6.60
6.14
5.14
3.70
2.02
0.38
-1.06
-2.27
-3.34
-4.37
-5.40
-6.34
-7.07
-7.48
-7.56
-7.50
-7.56
-7.99
-8.91
-10.18
-11.54
-12.65
-13.30
-13.41
-13.00
-12.18
-11.00
-9.56
-8.06
-6.70
-5.74
-5.27
-5.20
-5.25
-5.06
-4.36
-3.13
-1.55
0.06
1.45
2.49
3.23
3.74
4.08
4.19
3.99
3.47
2.78
2.16
1.81
1.69
1.53
0.91
-0.46
-2.52
-4.87
-6.98
-8.47
-9.33
-9.83
-10.32
-10.95
-11.55
-11.79
-11.40
-10.43
-9.17
-8.06
-7.42
-7.23
-7.18
-6.84
-5.84
-4.07
-1.70
0.92
3.38
5.37
6.69
7.34
7.40
7.05
6.46
5.80
5.21
4.78
4.60
4.73
5.18
5.88
6.73
7.57
8.24
8.56
8.45
7.94
7.16
6.30
5.59
5.19
5.12
5.24
5.25
4.85
3.87
2.41
0.83
-0.43
-1.03
-0.87
-0.09
1.00
2.07
2.86
3.18
2.90
1.96
0.42
-1.57
-3.69
-5.63
-7.21
-8.45
-9.57
-10.79
-12.20
-13.60
-14.60
-14.78
-13.88
-11.98
-9.44
-6.72
-4.20
-2.00
0.01
2.00
3.96
5.72
7.00
7.60
7.64
7.46
7.48
7.98
8.91
10.00
10.89
11.35
11.32
10.94
10.42
9.95
9.68
9.63
9.80
10.08
10.32
10.37
10.10
9.44
8.43
7.19
5.92
4.86
4.16
3.86
3.78
3.63
3.13
2.17
0.84
-0.59
-1.79
-2.62
-3.15
-3.63
-4.40
-5.69
-7.49
-9.57
-11.49
-12.76
-13.02
-12.21
-10.58
-8.62
-6.78
-5.30
-4.14
-3.07
-1.96
-0.85
0.03
0.45
0.40
0.16
0.19
0.87
2.19
3.76
4.99
5.36
4.72
3.34
1.71
0.27
-0.78
-1.49
-2.03
-2.57
-3.19
-3.95
-4.89
-6.10
-7.60
-9.30
-11.01
-12.53
-13.70
-14.55
-15.20
-15.76
-16.22
-16.50
-16.52
-16.20
-15.59
-14.78
-13.86
-12.88
-11.83
-10.63
-9.12
-7.19
-4.86
-2.32
0.06
1.91
3.04
3.55
3.79
4.20
5.08
6.48
8.25
10.10
11.75
12.98
13.67
13.72
13.25
12.46
11.63
10.97
10.47
9.94
9.10
7.84
6.29
4.79
3.64
2.97
2.61
2.27
1.67
0.76
-0.40
-1.56
-2.58
-3.40
-4.09
-4.78
-5.57
-6.55
-7.76
-9.17
-10.71
-12.21
-13.47
-14.34
-14.86
-15.20
-15.56
-16.02
-16.48
-16.65
-16.29
-15.33
-14.00
-12.62
-11.48
-10.53
-9.37
-7.40
-4.08
0.73
6.70
13.07
18.82
23.04
25.07
24.75
22.37
18.64
14.48
10.76
8.05
6.46
5.68
5.10
4.11
2.33
-0.28
-3.36
-6.38
-8.82
-10.34
-10.87
-10.62
-9.91
-9.07
-8.35
-7.84
-7.48
-7.13
-6.67
-6.01
-5.20
-4.33
-3.47
-2.62
-1.71
-0.67
0.45
1.49
2.16
2.18
1.46
0.18
-1.16
-1.92
-1.52
0.31
3.38
7.09
10.47
12.49
12.26
9.39
4.11
-2.65
-9.52
-15.16
-18.74
-20.40
-21.04
-21.98
-24.28
-28.07
-32.57
-36.43
-38.19
-36.80
-31.87
-23.68
-13.34
-2.74
5.70
9.67
7.79
0.44
-10.07
-20.25
-26.66
-27.35
-22.47
-13.88
-4.21
4.41
11.04
15.95
20.02
24.09
28.57
33.39
38.31
43.07
47.62
51.86
55.40
57.58
57.64
54.99
49.58
42.02
33.31
24.50
16.20
8.29
0.11
-9.12
-19.79
-31.55
-43.30
-53.71
-61.83
-67.54
-71.48
-74.51
-77.32
-80.12
-82.98
-86.27
-91.04
-98.82
-110.85
-127.33
-146.78
-166.13
-181.21
-187.79
-182.68
-164.72
-135.49
-99.33
-62.42
-31.02
-9.45
1.52
4.84
5.90
10.23
21.22
38.95
60.43
81.08
96.75
105.26
106.85
103.38
97.15
89.69
81.37
71.69
60.00
45.96
29.76
11.88
-6.81
-24.66
-38.85
-45.60
-41.39
-24.68
2.76
35.99
68.50
94.66
111.49
119.02
119.31
114.88
107.83
99.70
91.87
85.79
82.65
82.58
84.11
84.64
81.52
73.33
60.64
45.73
31.60
20.75
14.30
11.71
11.36
11.44
10.83
9.58
8.73
9.58
13.02
18.78
25.59
31.63
35.47
36.61
35.57
33.45
31.21
29.47
28.09
26.54
24.46
22.08
20.25
20.08
22.23
26.44
32.03
37.68
42.06
44.49
45.24
45.49
46.81
50.47
56.76
65.68
76.36
87.29
97.06
104.68
109.80
112.70
114.32
116.66
123.95
140.77
170.12
211.27
258.87
304.15
338.03
